date,LOG_CHG_PCT_1D_win,PX_LAST
2015-01-02,-0.002847049000526614,66.65
2015-01-05,-0.01928272247011859,64.6
2015-01-06,-0.010738451338545885,63.91
2015-01-07,0.005772308128016538,64.28
2015-01-08,0.01917890340910636,66.11
2015-01-09,-0.009728165533710404,65.47
2015-01-12,-0.0015281670527109085,65.37
2015-01-13,-0.0030646913728449984,65.17
2015-01-14,-0.00878447073226784,64.6
2015-01-15,-0.012774244346314176,63.78
2015-01-16,0.010759904050434758,64.47
2015-01-19,0.0,64.47
2015-01-20,-0.004041154476553654,64.21
2015-01-21,0.002022952451224836,64.34
2015-01-22,0.005734526130139785,64.71
2015-01-23,-0.014789832372667405,63.76
2015-01-26,0.0001569876767897752,63.77
2015-01-27,-0.013896105192111352,62.89
2015-01-28,-0.0128026047216049,62.09
2015-01-29,0.014549638792498928,63.0
2015-01-30,0.0017444775139162153,63.11
2015-02-02,0.0067908896253317565,63.54
2015-02-03,-0.0011026076484601363,63.47
2015-02-04,-0.0039467782930163765,63.22
2015-02-05,0.00928872590225701,63.81
2015-02-06,0.008115976185569994,64.33
2015-02-09,-0.010626259241300087,63.65
2015-02-10,0.0012562106369170829,63.73
2015-02-11,-0.0007853082738405703,63.68
2015-02-12,0.0061053245189796965,64.07
2015-02-13,0.007618902313235076,64.56
2015-02-16,0.0,64.56
2015-02-17,0.010631287068660605,65.25
2015-02-18,0.008849725409134994,65.83
2015-02-19,0.0001519884491703992,65.84
2015-02-20,0.004999481738261756,66.17
2015-02-23,0.0015098595881303965,66.27
2015-02-24,0.0004528974264760718,66.3
2015-02-25,-0.006810136428550175,65.85
2015-02-26,0.006206698534521126,66.26
2015-02-27,-0.0059033907729709656,65.87
2015-03-02,0.009518554482848798,66.5
2015-03-03,-0.009215331031726505,65.89
2015-03-04,-0.004106419812801334,65.62
2015-03-05,-0.00903166295776716,65.03
2015-03-06,-0.011755829785873181,64.27
2015-03-09,-0.0014009809156281003,64.18
2015-03-10,-0.006722545760826811,63.75
2015-03-11,-0.006136791646064485,63.36
2015-03-12,0.0031520271389660725,63.56
2015-03-13,-0.007263314118211518,63.1
2015-03-16,0.010875645192038638,63.79
2015-03-17,-0.002825989349063018,63.61
2015-03-18,0.005330766184800815,63.95
2015-03-19,-0.0048597896716527774,63.64
2015-03-20,-0.006462839227747736,63.23
2015-03-23,0.0025268049378700625,63.39
2015-03-24,0.0017334966261512764,63.5
2015-03-25,-0.00822271404285245,62.98
2015-03-26,0.0,62.98
2015-03-27,0.003170967165373014,63.18
2015-03-30,0.00819631822448586,63.7
2015-03-31,-0.002830000677053272,63.52
2015-04-01,0.0020449077502368977,63.65
2015-04-02,-0.007886013024124762,63.15
2015-04-03,0.0,63.15
2015-04-06,0.0036353839768382733,63.38
2015-04-07,-0.004269099652207482,63.11
2015-04-08,0.0048999754881921005,63.42
2015-04-09,-0.00142000773392906,63.33
2015-04-10,0.0025228150243714886,63.49
2015-04-13,-0.0009454467940023729,63.43
2015-04-14,-0.0020521041261308344,63.3
2015-04-15,-0.0047502646634169235,63.0
2015-04-16,0.00015898736083975348,63.01
2015-04-17,-0.0027016461617061344,62.84
2015-04-20,-0.000477113800690008,62.81
2015-04-21,-0.0014340277264386775,62.72
2015-04-22,0.0025477517225643634,62.88
2015-04-23,0.0009535452312098676,62.94
2015-04-24,0.005545594725598563,63.29
2015-04-27,-0.00793137032628028,62.79
2015-04-28,-0.00015901264184007305,62.78
2015-04-29,-0.0036707288894624155,62.55
2015-04-30,-0.007703596651699169,62.07
2015-05-01,0.01917890340910636,64.05
2015-05-04,-0.0014059879379769878,63.96
2015-05-05,-0.015122774907628934,63.0
2015-05-06,0.0015857420462392193,63.1
2015-05-07,-0.0015862574413719778,63.0
2015-05-08,0.0025367796519699675,63.16
2015-05-11,-0.0015842542683459574,63.06
2015-05-12,0.007110659235047699,63.51
2015-05-13,0.012828363558843118,64.33
2015-05-14,0.01358628700341234,65.21
2015-05-15,-0.00015301170569395473,65.2
2015-05-18,0.0070302299212004395,65.66
2015-05-19,0.006527648469583422,66.09
2015-05-20,-0.009577720281110199,65.46
2015-05-21,-0.00828321126957715,64.92
2015-05-22,-0.006491021170371195,64.5
2015-05-26,-0.008250945626535288,63.97
2015-05-27,0.007940391485589572,64.48
2015-05-28,0.0001549879887410526,64.49
2015-05-29,-0.011227796465020461,63.77
2015-06-01,0.0020369240609141334,63.9
2015-06-02,0.0007816943973105511,63.95
2015-06-03,0.0029665953015828284,64.14
2015-06-04,-0.003435895935900819,63.92
2015-06-05,0.005616199585529608,64.28
2015-06-08,-0.008279178007262833,63.75
2015-06-09,0.006255394162508043,64.15
2015-06-10,0.001402016715091746,64.24
2015-06-11,0.008370866333759724,64.78
2015-06-12,-0.0030917746131858353,64.58
2015-06-15,-0.004811556997222082,64.27
2015-06-16,0.009754272030932877,64.9
2015-06-17,-0.0013879627748488112,64.81
2015-06-18,0.007072927769880801,65.27
2015-06-19,0.0003059531915485981,65.29
2015-06-22,0.0032108397326533256,65.5
2015-06-23,-0.004896970612706744,65.18
2015-06-24,-0.011263192278710714,64.45
2015-06-25,-0.002641485653452067,64.28
2015-06-26,0.003106170852559619,64.48
2015-06-29,-0.01154235745527512,63.74
2015-06-30,0.00047088911431684847,63.77
2015-07-01,0.0012542131457659105,63.85
2015-07-02,-0.0009404420770567194,63.79
2015-07-03,0.0,63.79
2015-07-06,0.000783692832535606,63.84
2015-07-07,0.007180160839073422,64.3
2015-07-08,-0.013465250953570583,63.44
2015-07-09,-0.00047311189978706974,63.41
2015-07-10,0.00424896036941354,63.68
2015-07-13,0.009066772313426442,64.26
2015-07-14,-0.004992441523044097,63.94
2015-07-15,0.0,63.94
2015-07-16,0.005614210784468326,64.3
2015-07-17,-0.005770618035444738,63.93
2015-07-20,0.00046889005387519783,63.96
2015-07-21,-0.013854532338975593,63.08
2015-07-22,-0.0012688045922205884,63.0
2015-07-23,-0.008607942260036538,62.46
2015-07-24,-0.011432098128261176,61.75
2015-07-27,-0.006010024068211893,61.38
2015-07-28,0.01487777499660147,62.3
2015-07-29,0.01917890340910636,66.35
2015-07-30,0.01718351413725241,67.5
2015-07-31,0.004286798535581357,67.79
2015-08-03,-0.007551440492834701,67.28
2015-08-04,0.009614630947903092,67.93
2015-08-05,0.012871801772433822,68.81
2015-08-06,-0.006414529173812307,68.37
2015-08-07,0.006124208692899515,68.79
2015-08-10,0.01629353645579214,69.92
2015-08-11,-0.01064040890226441,69.18
2015-08-12,-0.005798780476405971,68.78
2015-08-13,0.003628409354003561,69.03
2015-08-14,0.012095552970416982,69.87
2015-08-17,0.003144052283684724,70.09
2015-08-18,-0.003716899119107278,69.83
2015-08-19,-0.010364526620392953,69.11
2015-08-20,-0.01516236996190715,68.07
2015-08-21,-0.006780938686842454,67.61
2015-08-24,-0.01928272247011859,66.15
2015-08-25,-0.00926377658549394,65.54
2015-08-26,0.017694524455057363,66.71
2015-08-27,0.014140549513163687,67.66
2015-08-28,0.0007387270739533335,67.71
2015-08-31,-0.005182405495792161,67.36
2015-09-01,-0.01928272247011859,65.8
2015-09-02,0.01028096925557368,66.48
2015-09-03,0.013447180040292637,67.38
2015-09-04,-0.001634334797847841,67.27
2015-09-07,0.0,67.27
2015-09-08,0.011087308011979958,68.02
2015-09-09,-0.0035342380682582032,67.78
2015-09-10,-0.012919093270659007,66.91
2015-09-11,0.007296317022609597,67.4
2015-09-14,-0.010140238884556837,66.72
2015-09-15,0.01917890340910636,68.41
2015-09-16,0.009166855699816625,69.04
2015-09-17,-0.009020563221083088,68.42
2015-09-18,-0.01873643588030254,67.15
2015-09-21,0.007122574138805107,67.63
2015-09-22,-0.013247360085629479,66.74
2015-09-23,-0.0008994043428542975,66.68
2015-09-24,-0.016329605225262434,65.6
2015-09-25,-0.001067569649746944,65.53
2015-09-28,-0.01928272247011859,64.15
2015-09-29,0.012239787254563548,64.94
2015-09-30,0.015584921738329472,65.96
2015-10-01,0.01917890340910636,67.24
2015-10-02,0.010944885624522274,67.98
2015-10-05,0.006305081134594071,68.41
2015-10-06,-0.010728343426476482,67.68
2015-10-07,0.014666913043396214,68.68
2015-10-08,0.013737210969092912,69.63
2015-10-09,0.009007312093287239,70.26
2015-10-12,0.004402295661225257,70.57
2015-10-13,-0.005826943710512732,70.16
2015-10-14,-0.007008502277247362,69.67
2015-10-15,0.0002869588233781981,69.69
2015-10-16,0.0021496877646926347,69.84
2015-10-19,0.002145696346242404,69.99
2015-10-20,0.007118602519993238,70.49
2015-10-21,-0.008834913162836957,69.87
2015-10-22,0.01917890340910636,71.29
2015-10-23,0.001541810798634711,71.4
2015-10-26,-0.0014019823180922803,71.3
2015-10-27,-0.004921088719074816,70.95
2015-10-28,0.012605219357395631,71.85
2015-10-29,0.006796849000272751,72.34
2015-10-30,0.016724364892411005,73.56
2015-11-02,0.01917890340910636,75.72
2015-11-03,-0.01275905161897119,74.76
2015-11-04,-0.01928272247011859,73.23
2015-11-05,0.0029994970077386143,73.45
2015-11-06,-0.002590352066946185,73.26
2015-11-09,-0.01111858299403702,72.45
2015-11-10,0.008111016588924026,73.04
2015-11-11,0.00027396246885564,73.06
2015-11-12,-0.01928272247011859,70.8
2015-11-13,0.010117643588285131,71.52
2015-11-16,0.008077290679387738,72.1
2015-11-17,-0.0018046273608819643,71.97
2015-11-18,0.01917890340910636,73.43
2015-11-19,0.003399216113204405,73.68
2015-11-20,0.008244917065363445,74.29
2015-11-23,-0.005940610537072439,73.85
2015-11-24,0.005806111863531245,74.28
2015-11-25,0.007911620431252403,74.87
2015-11-26,0.0,74.87
2015-11-27,0.0018682537266818604,75.01
2015-11-30,-0.007091082402675118,74.48
2015-12-01,0.006557452833739298,74.97
2015-12-02,-0.013969115360837794,73.93
2015-12-03,-0.0063772917667190435,73.46
2015-12-04,0.012042200772787788,74.35
2015-12-07,-0.0017495295346775972,74.22
2015-12-08,-0.008389090223813856,73.6
2015-12-09,-0.00709007528689857,73.08
2015-12-10,0.004777569219644019,73.43
2015-12-11,-0.007792281118471482,72.86
2015-12-14,-0.004264078273688393,72.55
2015-12-15,0.007005404752450138,73.06
2015-12-16,0.005323803376640706,73.45
2015-12-17,-0.016333671088175777,72.26
2015-12-18,-0.016043003546782453,71.11
2015-12-21,0.007704245935488334,71.66
2015-12-22,0.009030105595554552,72.31
2015-12-23,0.015778856503023544,73.46
2015-12-24,-0.0021803752915500515,73.3
2015-12-28,0.00557741725137504,73.71
2015-12-29,0.004467008047049128,74.04
2015-12-30,-0.005689152582534742,73.62
2015-12-31,-0.013263573584989417,72.65
2016-01-04,-0.007876941810562706,72.08
2016-01-05,-0.00570423827682141,71.67
2016-01-06,-0.006860479364641383,71.18
2016-01-07,-0.01928272247011859,69.76
2016-01-08,0.0017185224939642511,69.88
2016-01-11,-0.0008593691519161912,69.82
2016-01-12,0.00028595910979622156,69.84
2016-01-13,-0.013405452918881022,68.91
2016-01-14,-0.002324700022444553,68.75
2016-01-15,-0.009940240904071774,68.07
2016-01-18,0.0,68.07
2016-01-19,0.0007347300197821374,68.12
2016-01-20,-0.0042660868220702535,67.83
2016-01-21,-0.01679932173660513,66.7
2016-01-22,0.01917890340910636,68.25
2016-01-25,-0.01928272247011859,66.86
2016-01-26,0.01917890340910636,70.49
2016-01-27,-0.0034108102054155216,70.25
2016-01-28,0.00596119670817571,70.67
2016-01-29,0.01917890340910636,72.9
2016-02-01,-0.008125926092070204,72.31
2016-02-02,-0.013785586051148269,71.32
2016-02-03,0.01917890340910636,73.15
2016-02-04,-0.012518024558972508,72.24
2016-02-05,-0.015625443887340707,71.12
2016-02-08,0.01917890340910636,73.03
2016-02-09,0.01871968818806078,74.41
2016-02-10,-0.002961380562179536,74.19
2016-02-11,0.0017504670382381448,74.32
2016-02-12,0.01309982144233906,75.3
2016-02-15,0.0,75.3
2016-02-16,-0.018090653559832196,73.95
2016-02-17,-0.007873918090994577,73.37
2016-02-18,-0.0009544553476241343,73.3
2016-02-19,-0.005746479431580159,72.88
2016-02-22,-0.0010986032436147973,72.8
2016-02-23,0.0009615375745450031,72.87
2016-02-24,0.014171113773784673,73.91
2016-02-25,0.005801140797620557,74.34
2016-02-26,-0.013679134207580594,73.33
2016-02-29,0.005168619642767767,73.71
2016-03-01,0.010660969378896329,74.5
2016-03-02,-0.0012087302201298355,74.41
2016-03-03,0.010561035424273307,75.2
2016-03-04,0.010581814593651324,76.0
2016-03-07,-0.0036908026404241403,75.72
2016-03-08,0.0009235733747808342,75.79
2016-03-09,0.0007916865334992973,75.85
2016-03-10,-0.0063481066601788075,75.37
2016-03-11,0.005425256645064705,75.78
2016-03-14,-0.007151511205478015,75.24
2016-03-15,0.01215384193252917,76.16
2016-03-16,0.005107932273730552,76.55
2016-03-17,0.009232251313577666,77.26
2016-03-18,-0.004800504003644277,76.89
2016-03-21,0.006352778305266618,77.38
2016-03-22,0.00887747832492763,78.07
2016-03-23,0.0008965979359162839,78.14
2016-03-24,-0.009644357667737725,77.39
2016-03-25,0.0,77.39
2016-03-28,0.01181789280392413,78.31
2016-03-29,0.002550744084560346,78.51
2016-03-30,0.0027980817156486194,78.73
2016-03-31,-0.004073284571310108,78.41
2016-04-01,0.008634614192337407,79.09
2016-04-04,-0.0022785940247475973,78.91
2016-04-05,-0.014938018714217901,77.74
2016-04-06,0.0030822449987793154,77.98
2016-04-07,-0.008111811965240355,77.35
2016-04-08,0.0001289916802155395,77.36
2016-04-11,0.0,77.36
2016-04-12,0.0029685893751958863,77.59
2016-04-13,0.007703253609640361,78.19
2016-04-14,0.003319484410342076,78.45
2016-04-15,0.010146351243876247,79.25
2016-04-18,0.004783540604766701,79.63
2016-04-19,-0.0022625576542590815,79.45
2016-04-20,0.0040199093268770275,79.77
2016-04-21,-0.015030392544066991,78.58
2016-04-22,0.013900932780458447,79.68
2016-04-25,-0.008317494656053179,79.02
2016-04-26,0.011450195592501147,79.93
2016-04-27,0.00037492970507319685,79.96
2016-04-28,-0.008414301151037853,79.29
2016-04-29,-0.01928272247011859,76.0
2016-05-02,0.011121921500464298,76.85
2016-05-03,-0.014417433516001672,75.75
2016-05-04,-0.002511150300404572,75.56
2016-05-05,0.006595203753177562,76.06
2016-05-06,0.0028878262131246343,76.28
2016-05-09,0.0035337489481387066,76.55
2016-05-10,0.0069001391901800544,77.08
2016-05-11,-0.0032482699211539797,76.83
2016-05-12,0.010359158162982858,77.63
2016-05-13,-0.008538348170059615,76.97
2016-05-16,0.0055714506049287064,77.4
2016-05-17,-0.01928272247011859,75.4
2016-05-18,-0.001990980687327201,75.25
2016-05-19,-0.005330180204972556,74.85
2016-05-20,0.006392524209704851,75.33
2016-05-23,-0.0071938135402710305,74.79
2016-05-24,0.01917890340910636,76.38
2016-05-25,-0.0003930772447387612,76.35
2016-05-26,0.00104745123137282,76.43
2016-05-27,0.0092471133566631,77.14
2016-05-30,0.0,77.14
2016-05-31,0.0015547906862987766,77.26
2016-06-01,-0.0006472093948237919,77.21
2016-06-02,0.001811358499227867,77.35
2016-06-03,-0.0019408822940723965,77.2
2016-06-06,-0.0014260162780789206,77.09
2016-06-07,0.005175583531522747,77.49
2016-06-08,0.002963604183707382,77.72
2016-06-09,0.0009005943431463045,77.79
2016-06-10,0.005257156902836163,78.2
2016-06-13,-0.018325898197517662,76.78
2016-06-14,-0.00443783262865571,76.44
2016-06-15,-0.001571233741485137,76.32
2016-06-16,0.002355224280574681,76.5
2016-06-17,-0.0019629252778917013,76.35
2016-06-20,0.016497170287453237,77.62
2016-06-21,0.0007727013893740133,77.68
2016-06-22,0.008077290679387738,78.31
2016-06-23,0.01917890340910636,80.14
2016-06-24,-0.01928272247011859,76.75
2016-06-27,-0.01928272247011859,74.6
2016-06-28,0.014505287802700691,75.69
2016-06-29,0.013516242653471794,76.72
2016-06-30,0.01917890340910636,79.13
2016-07-01,0.0005048725304129332,79.17
2016-07-04,0.0,79.17
2016-07-05,-0.005700215402759484,78.72
2016-07-06,0.0002539677474612908,78.74
2016-07-07,-0.003180051006630947,78.49
2016-07-08,0.016427329539086218,79.79
2016-07-11,0.005124845517248487,80.2
2016-07-12,0.0026145790074714945,80.41
2016-07-13,-0.0022415103082534175,80.23
2016-07-14,-0.0004991245419327001,80.19
2016-07-15,-0.003372681100260882,79.92
2016-07-18,-0.00012500781315114446,79.91
2016-07-19,-0.0036356007948618483,79.62
2016-07-20,0.008504732023043176,80.3
2016-07-21,-0.0044930787778876295,79.94
2016-07-22,0.0064839337952558185,80.46
2016-07-25,-0.006359176772736789,79.95
2016-07-26,0.004368444437350849,80.3
2016-07-27,-0.007249212161061018,79.72
2016-07-28,-0.004274121055940827,79.38
2016-07-29,-0.01523242659104443,78.18
2016-08-01,-0.010802133534086832,77.34
2016-08-02,-0.00948382968176175,76.61
2016-08-03,0.0001309914202493933,76.62
2016-08-04,0.002085823157637995,76.78
2016-08-05,-0.002478067875540063,76.59
2016-08-08,-0.005499092330851799,76.17
2016-08-09,-0.0024971151986148076,75.98
2016-08-10,0.003154020842849046,76.22
2016-08-11,-0.0015752400393854455,76.1
2016-08-12,-0.006856451836486434,75.58
2016-08-15,-0.0010585600770758833,75.5
2016-08-16,-0.0045131690434515,75.16
2016-08-17,0.008347066112813191,75.79
2016-08-18,0.01362870584409207,76.83
2016-08-19,-0.0006512119925096994,76.78
2016-08-22,0.00415933794861199,77.1
2016-08-23,0.0031081646478684543,77.34
2016-08-24,0.0030981956315711797,77.58
2016-08-25,0.006296137661813792,78.07
2016-08-26,0.00511091698454936,78.47
2016-08-29,0.003943215297668928,78.78
2016-08-30,-0.0011426525788773387,78.69
2016-08-31,-0.00906395380139856,77.98
2016-09-01,-0.00012800819269913476,77.97
2016-09-02,0.015146707263247882,79.16
2016-09-05,0.0,79.16
2016-09-06,0.003782836045220355,79.46
2016-09-07,0.010391817541992362,80.29
2016-09-08,-0.013542284200549865,79.21
2016-09-09,-0.01928272247011859,77.46
2016-09-12,0.013463952827727976,78.51
2016-09-13,-0.012431957543090642,77.54
2016-09-14,-0.002194405948535754,77.37
2016-09-15,0.006826645342277345,77.9
2016-09-16,-0.0038584341926883874,77.6
2016-09-19,0.012931032659384261,78.61
2016-09-20,0.0013980223112514062,78.72
2016-09-21,-0.0038182803633628267,78.42
2016-09-22,0.013174829535352867,79.46
2016-09-23,-0.008467750418871215,78.79
2016-09-26,-0.009308187071624409,78.06
2016-09-27,-0.004107423928168082,77.74
2016-09-28,0.011128844054392129,78.61
2016-09-29,-0.01796948852221191,77.21
2016-09-30,0.002586651730100033,77.41
2016-10-03,-0.0006462087479056415,77.36
2016-10-04,-0.01642109113954502,76.1
2016-10-05,0.0001309914202493933,76.11
2016-10-06,0.006939863345649773,76.64
2016-10-07,-0.013133872950085097,75.64
2016-10-10,0.004089626067787077,75.95
2016-10-11,-0.011654652384366554,75.07
2016-10-12,0.00782827891254313,75.66
2016-10-13,-0.000925428076500821,75.59
2016-10-14,0.005804123440132437,76.03
2016-10-17,0.0022335038722019083,76.2
2016-10-18,0.002489897630568308,76.39
2016-10-19,0.0011773067024161887,76.48
2016-10-20,-0.006690330433576672,75.97
2016-10-21,0.01554258579870403,77.16
2016-10-24,-0.002076153716387124,77.0
2016-10-25,0.0,77.0
2016-10-26,-0.009526230796311671,76.27
2016-10-27,0.0001309914202493933,76.28
2016-10-28,-0.01928272247011859,73.02
2016-10-31,-0.01928272247011859,71.44
2016-11-01,-0.011544380675776764,70.62
2016-11-02,0.004239002719299328,70.92
2016-11-03,-0.000705248629362624,70.87
2016-11-04,0.007591114445813035,71.41
2016-11-07,0.01917890340910636,74.33
2016-11-08,0.018791331795494262,75.74
2016-11-09,-0.008352787605181055,75.11
2016-11-10,-0.01928272247011859,71.43
2016-11-11,0.005862780268375747,71.85
2016-11-14,0.01917890340910636,73.51
2016-11-15,-0.0017695647565984232,73.38
2016-11-16,0.0025856543129117024,73.57
2016-11-17,0.0001359907528383138,73.58
2016-11-18,0.0009505480859907114,73.65
2016-11-21,0.007979082288046502,74.24
2016-11-22,0.016696828901393946,75.49
2016-11-23,0.007390621948225705,76.05
2016-11-24,0.0,76.05
2016-11-25,0.0002629654215625221,76.07
2016-11-28,0.0052442249829282965,76.47
2016-11-29,-0.010384735193072276,75.68
2016-11-30,-0.01928272247011859,73.18
2016-12-01,0.012222993921713709,74.08
2016-12-02,0.003638373086018951,74.35
2016-12-05,-0.013131846511136185,73.38
2016-12-06,0.0057076801588981626,73.8
2016-12-07,-0.004345427710237759,73.48
2016-12-08,0.00975130114707988,74.2
2016-12-09,0.007384666110760541,74.75
2016-12-12,-0.0018747562578232456,74.61
2016-12-13,-0.0032221856690181363,74.37
2016-12-14,-0.017908402473330236,73.05
2016-12-15,-0.0012327595358962492,72.96
2016-12-16,-0.00041108448364936316,72.93
2016-12-19,0.011858410301312274,73.8
2016-12-20,0.0024360304669806595,73.98
2016-12-21,-0.008416318052673507,73.36
2016-12-22,-0.004645774919894305,73.02
2016-12-23,0.008047531579300753,73.61
2016-12-26,0.0,73.61
2016-12-27,0.007579205123393892,74.17
2016-12-28,-0.006085479023902863,73.72
2016-12-29,-0.000407082846979956,73.69
2016-12-30,-0.0032623155695113296,73.45
2017-01-02,0.0,73.45
2017-01-03,-0.0058712018238368646,73.02
2017-01-04,0.01643519916302623,74.23
2017-01-05,-0.01029076879558892,73.47
2017-01-06,0.00040791679063214263,73.5
2017-01-09,0.0024460060865663185,73.68
2017-01-10,-0.011740652523031548,72.82
2017-01-11,0.003016445949053245,73.04
2017-01-12,0.003962140345019454,73.33
2017-01-13,0.0023153175824295958,73.5
2017-01-16,0.0,73.5
2017-01-17,-0.0021793731092981695,73.34
2017-01-18,0.0019071801751622815,73.48
2017-01-19,-0.010259448625144009,72.73
2017-01-20,-0.01510043992759743,71.64
2017-01-23,0.011243553685874782,72.45
2017-01-24,0.014932946486354116,73.54
2017-01-25,-0.001497120125277711,73.43
2017-01-26,-0.0014991231237663958,73.32
2017-01-27,0.0016356615759677855,73.44
2017-01-30,-0.009577720281110199,72.74
2017-01-31,0.0031570113912211158,72.97
2017-02-01,0.01320542332629593,73.94
2017-02-02,-0.008284219587697511,73.33
2017-02-03,0.006118245308082324,73.78
2017-02-06,-0.00584504906557429,73.35
2017-02-07,-0.008488929220908246,72.73
2017-02-08,0.011211910963846501,73.55
2017-02-09,0.00027196301470656454,73.57
2017-02-10,0.016447003482817316,74.79
2017-02-13,-0.004824619783504462,74.43
2017-02-14,-0.00809366552345469,73.83
2017-02-15,-0.008569614480864423,73.2
2017-02-16,0.01356852974513248,74.2
2017-02-17,-0.0040511950202693275,73.9
2017-02-20,0.0,73.9
2017-02-21,0.009293679661392404,74.59
2017-02-22,-0.004433814845949443,74.26
2017-02-23,-0.001886778848270853,74.12
2017-02-24,0.0032327689670148888,74.36
2017-02-27,0.0016126989017935388,74.48
2017-02-28,0.0004029188173102815,74.51
2017-03-01,0.01917890340910636,76.06
2017-03-02,-0.003292414051747557,75.81
2017-03-03,0.003029406710348646,76.04
2017-03-06,-0.005142198469810062,75.65
2017-03-07,-0.002381834316618488,75.47
2017-03-08,0.0062086861575921,75.94
2017-03-09,-0.0011857026676622964,75.85
2017-03-10,0.012316835401791305,76.79
2017-03-13,-0.0005211357676586751,76.75
2017-03-14,-0.0028701148419720346,76.53
2017-03-15,0.009234232932084455,77.24
2017-03-16,-0.0033716777223892483,76.98
2017-03-17,0.0012981570294334805,77.08
2017-03-20,0.009811707383992781,77.84
2017-03-21,-0.01384135106348428,76.77
2017-03-22,0.0010414574948275413,76.85
2017-03-23,0.004025885237979563,77.16
2017-03-24,-0.007022600840301867,76.62
2017-03-27,0.0,76.62
2017-03-28,0.005855821163555107,77.07
2017-03-29,-0.00038907568012698865,77.04
2017-03-30,-0.002338732704561391,76.86
2017-03-31,0.0016895718692528361,76.99
2017-04-03,-0.007038713727187751,76.45
2017-04-04,0.0037858247136838535,76.74
2017-04-05,-0.008637193395663588,76.08
2017-04-06,0.0058975750660597214,76.53
2017-04-07,-0.004846726425948586,76.16
2017-04-10,0.00953935532518466,76.89
2017-04-11,0.00038992396976710866,76.92
2017-04-12,-0.009010472658281908,76.23
2017-04-13,-0.00565697052865314,75.8
2017-04-14,0.0,75.8
2017-04-17,0.01917890340910636,77.27
2017-04-18,0.0038744844818816987,77.57
2017-04-19,-0.0002580332877255924,77.55
2017-04-20,0.0034759518736509737,77.82
2017-04-21,0.002182616359038948,77.99
2017-04-24,0.003967120561111074,78.3
2017-04-25,0.005476973958242406,78.73
2017-04-26,0.007718138393967651,79.34
2017-04-27,-0.006956137926080117,78.79
2017-04-28,0.018983664586767344,80.3
2017-05-01,-0.007123310643076442,79.73
2017-05-02,0.005877692472772515,80.2
2017-05-03,0.003112152226560947,80.45
2017-05-04,0.011616269139739257,81.39
2017-05-05,0.006368676856610844,81.91
2017-05-08,0.007298302481111586,82.51
2017-05-09,-0.0003640662640806024,82.48
2017-05-10,0.004716858113424362,82.87
2017-05-11,-0.004111440399717918,82.53
2017-05-12,-0.0012127350659933396,82.43
2017-05-15,0.002423062012745364,82.63
2017-05-16,0.001934128367264598,82.79
2017-05-17,-0.0061790510767156005,82.28
2017-05-18,-0.0017034500475541796,82.14
2017-05-19,0.0026744205470924324,82.36
2017-05-22,0.00581108290473078,82.84
2017-05-23,0.004216099747737239,83.19
2017-05-24,0.0024011150147446856,83.39
2017-05-25,0.009072718140991686,84.15
2017-05-26,0.0026105894441689737,84.37
2017-05-29,0.0,84.37
2017-05-30,0.002012972610503167,84.54
2017-05-31,0.0055436057841133845,85.01
2017-06-01,0.014596944346968316,86.26
2017-06-02,0.0008116705063538644,86.33
2017-06-05,-0.00557551433318564,85.85
2017-06-06,-0.004319314824230099,85.48
2017-06-07,0.0024539865105862478,85.69
2017-06-08,-0.00514822942064974,85.25
2017-06-09,0.004681026878536684,85.65
2017-06-12,-0.002455011075111192,85.44
2017-06-13,0.00862370870474553,86.18
2017-06-14,0.0008116705063538644,86.25
2017-06-15,-0.0002320269161631237,86.23
2017-06-16,-0.0032522829434112137,85.95
2017-06-19,0.009264947516808458,86.75
2017-06-20,0.0016126989017935388,86.89
2017-06-21,0.0012651992977214645,87.0
2017-06-22,-0.0020711433373869817,86.82
2017-06-23,-0.00023002645405631884,86.8
2017-06-26,0.003909348529531441,87.14
2017-06-27,-0.008875268939368214,86.37
2017-06-28,0.0064630692997212575,86.93
2017-06-29,-0.0050748553227790046,86.49
2017-06-30,0.004268875372182293,86.86
2017-07-03,0.0025297973625469706,87.08
2017-07-04,0.0,87.08
2017-07-05,0.0024090957970210147,87.29
2017-07-06,0.00022897378350234367,87.31
2017-07-07,0.00889432793374447,88.09
2017-07-10,0.0023811627803929296,88.3
2017-07-11,-0.0014730844563438338,88.17
2017-07-12,0.009145056211509238,88.98
2017-07-13,-0.0039407545836964136,88.63
2017-07-14,0.008985509126695492,89.43
2017-07-17,0.004016921357933999,89.79
2017-07-18,-0.0005571551821270017,89.74
2017-07-19,0.0038924147153438535,90.09
2017-07-20,-0.004338397250772116,89.7
2017-07-21,-0.002120246134101715,89.51
2017-07-24,-0.0005591562987500245,89.46
2017-07-25,-0.0086442541428016,88.69
2017-07-26,-0.007128346399464609,88.06
2017-07-27,-0.0006812319858275876,88.0
2017-07-28,-0.01928272247011859,82.31
2017-07-31,-0.016908140368089363,80.93
2017-08-01,0.01917890340910636,82.51
2017-08-02,-0.003155974853758227,82.25
2017-08-03,0.0,82.25
2017-08-04,0.001336107011361842,82.36
2017-08-07,0.004603388131587038,82.74
2017-08-08,0.0,82.74
2017-08-09,-0.0031469464458727175,82.48
2017-08-10,-0.01182969575357876,81.51
2017-08-11,0.007699284296401115,82.14
2017-08-14,0.009330336716319243,82.91
2017-08-15,-0.001931864849826405,82.75
2017-08-16,0.009621563943962791,83.55
2017-08-17,-0.017142089667257724,82.13
2017-08-18,0.00024397023684128634,82.15
2017-08-21,-0.008066446478186225,81.49
2017-08-22,0.007701268954990059,82.12
2017-08-23,-0.006229362251341201,81.61
2017-08-24,-0.00651517775334321,81.08
2017-08-25,0.016027864777191824,82.39
2017-08-28,-0.006453780914858525,81.86
2017-08-29,0.00170853961460243,82.0
2017-08-30,0.011759584255825236,82.97
2017-08-31,0.007684399231429916,83.61
2017-09-01,0.003223797974718272,83.88
2017-09-04,0.0,83.88
2017-09-05,-0.007539349605635579,83.25
2017-09-06,-0.0048165811255985415,82.85
2017-09-07,0.009131183562427625,83.61
2017-09-08,0.0025088502017594624,83.82
2017-09-11,0.015389964628276128,85.12
2017-09-12,0.0009395584766662337,85.2
2017-09-13,-0.008249937341965089,84.5
2017-09-14,0.004369440077938454,84.87
2017-09-15,-0.001886778848270853,84.71
2017-09-18,0.008581077021169259,85.44
2017-09-19,0.0014030153135587155,85.56
2017-09-20,0.006523674487245888,86.12
2017-09-21,0.00034793946204441343,86.15
2017-09-22,-0.0050034966383214075,85.72
2017-09-25,0.012059985154938913,86.76
2017-09-26,-0.0001150066130069783,86.75
2017-09-27,-0.002423935359126698,86.54
2017-09-28,0.006220611813056201,87.08
2017-09-29,-0.008881322446316207,86.31
2017-10-02,0.01802654118467778,87.88
2017-10-03,0.006239493810016752,88.43
2017-10-04,-0.003284387701238786,88.14
2017-10-05,0.0,88.14
2017-10-06,0.004979581280351653,88.58
2017-10-09,-0.0013559188426149483,88.46
2017-10-10,0.00011299361598095465,88.47
2017-10-11,-0.0012437731652626847,88.36
2017-10-12,0.0014699191393341942,88.49
2017-10-13,0.003947199547927553,88.84
2017-10-16,0.00112536653747457,88.94
2017-10-17,0.0004498987803648136,88.98
2017-10-18,-0.004280146773704321,88.6
2017-10-19,0.00045089833006759026,88.64
2017-10-20,0.00629812510712184,89.2
2017-10-23,-0.0019078187293661817,89.03
2017-10-24,0.0010104892836939002,89.12
2017-10-25,-0.007094103756090358,88.49
2017-10-26,0.005072115049024453,88.94
2017-10-27,-0.011420971715522752,87.93
2017-10-30,-0.01685932306885613,86.46
2017-10-31,0.0070302299212004395,87.07
2017-11-01,0.003897395278695417,87.41
2017-11-02,-0.009310205776947996,86.6
2017-11-03,0.003918313373894479,86.94
2017-11-06,-0.012616251263246845,85.85
2017-11-07,-0.0015151472561100636,85.72
2017-11-08,0.00011699315603374689,85.73
2017-11-09,-0.011379501631377985,84.76
2017-11-10,0.001768435395960753,84.91
2017-11-13,0.007976106125619484,85.59
2017-11-14,0.00023397262627028605,85.61
2017-11-15,-0.0015201548501264327,85.48
2017-11-16,0.007342974255258597,86.11
2017-11-17,-0.005356319501284051,85.65
2017-11-20,-0.002104212302717246,85.47
2017-11-21,0.012441285254587348,86.54
2017-11-22,-0.0080049543257248,85.85
2017-11-23,0.0,85.85
2017-11-24,0.004648180452001035,86.25
2017-11-27,0.005664923976024434,86.74
2017-11-28,0.0019580817061615984,86.91
2017-11-29,0.007451170949012074,87.56
2017-11-30,0.009661180142239162,88.41
2017-12-01,-0.009204229256199263,87.6
2017-12-04,0.0052372615721700076,88.06
2017-12-05,0.010618424460608294,89.0
2017-12-06,-0.009369759417383664,88.17
2017-12-07,0.0023791675350627152,88.38
2017-12-08,-0.005445801496108564,87.9
2017-12-11,-0.007077989976693675,87.28
2017-12-12,-0.009786734235824516,86.43
2017-12-13,0.0030034850197743334,86.69
2017-12-14,-0.003697828548460031,86.37
2017-12-15,0.007038173845042092,86.98
2017-12-18,-0.00472514593976823,86.57
2017-12-19,0.00011599327252025839,86.58
2017-12-20,-0.0028921783185951386,86.33
2017-12-21,-0.0066248962449951656,85.76
2017-12-22,0.0016306697351315892,85.9
2017-12-26,-0.005954694052318035,85.39
2017-12-27,0.002690377686217099,85.62
2017-12-28,0.013111665199494924,86.75
2017-12-29,-0.005432730592994507,86.28
2018-01-02,0.008425406370374703,87.01
2018-01-03,0.002066862567224609,87.19
2018-01-04,-0.013626419394706032,86.01
2018-01-05,0.010409631299161705,86.91
2018-01-08,0.0033314445710468125,87.2
2018-01-09,-0.009332411804472236,86.39
2018-01-10,-0.008368921939650097,85.67
2018-01-11,0.006747186457242262,86.25
2018-01-12,0.0035875570147780316,86.56
2018-01-15,0.0,86.56
2018-01-16,-0.0037038507946373788,86.24
2018-01-17,0.00693291173235422,86.84
2018-01-18,0.004595424842350589,87.24
2018-01-19,0.015581968126283484,88.61
2018-01-22,-0.013062950030098061,87.46
2018-01-23,0.0015997197657544983,87.6
2018-01-24,0.006825652145180938,88.2
2018-01-25,0.01384964931305369,89.43
2018-01-26,-0.0032482699211539797,89.14
2018-01-29,-0.015944439683161775,87.73
2018-01-30,-0.00045610399961709723,87.69
2018-01-31,-0.0030837498729116303,87.42
2018-02-01,-0.006657109464296409,86.84
2018-02-02,-0.012048290031327175,85.8
2018-02-05,-0.01928272247011859,83.38
2018-02-06,0.004904951035863114,83.79
2018-02-07,0.0007157437942881712,83.85
2018-02-08,-0.01928272247011859,81.38
2018-02-09,0.00953935532518466,82.16
2018-02-12,0.005340712969502808,82.6
2018-02-13,0.01917890340910636,89.72
2018-02-14,0.010422496593101726,90.66
2018-02-15,0.0056092387645105945,91.17
2018-02-16,0.007212924205661144,91.83
2018-02-19,0.0,91.83
2018-02-20,-0.008420351868148645,91.06
2018-02-21,-0.009933171000399203,90.16
2018-02-22,0.0049785862470601875,90.61
2018-02-23,0.004185229695220952,90.99
2018-02-26,-0.0023106675372410075,90.78
2018-02-27,-0.0142003494011414,89.5
2018-02-28,-0.0008943998563320872,89.42
2018-03-01,-0.004708065568078788,89.0
2018-03-02,0.007610963001335189,89.68
2018-03-05,0.007996939076602832,90.4
2018-03-06,0.004084646461763503,90.77
2018-03-07,-0.006965200790640125,90.14
2018-03-08,-0.0021102249593594464,89.95
2018-03-09,0.01017604795140444,90.87
2018-03-12,-0.0009904903736733858,90.78
2018-03-13,-0.0030887653280365296,90.5
2018-03-14,-0.004762321874885387,90.07
2018-03-15,0.0023292851079329867,90.28
2018-03-16,-0.001441037796404191,90.15
2018-03-19,-0.0021102249593594464,89.96
2018-03-20,-0.0020030046751831304,89.78
2018-03-21,-0.0021182418911193743,89.59
2018-03-22,-0.018361546152576503,87.96
2018-03-23,-0.013621350809140408,86.77
2018-03-26,0.016459791338682656,88.21
2018-03-27,-0.0014750874066896402,88.08
2018-03-28,0.0031739576630665702,88.36
2018-03-29,0.016499137561843808,89.83
2018-03-30,0.0,89.83
2018-04-02,-0.01928272247011859,87.93
2018-04-03,0.018367283958115245,89.56
2018-04-04,0.0016735987520088017,89.71
2018-04-05,0.007661575034803327,90.4
2018-04-06,-0.01928272247011859,88.5
2018-04-09,0.015695183679464937,89.9
2018-04-10,0.01917890340910636,92.72
2018-04-11,-0.005081890961808517,92.25
2018-04-12,0.004866141107482342,92.7
2018-04-13,0.0005388547916759153,92.75
2018-04-16,0.01667912679248217,94.31
2018-04-17,0.019114155059430975,96.13
2018-04-18,-0.005423681606304965,95.61
2018-04-19,-0.008508091380685937,94.8
2018-04-20,-0.0038042269040032338,94.44
2018-04-23,-0.0009534543932140755,94.35
2018-04-24,-0.012478534067315807,93.18
2018-04-25,-0.0003220518531314821,93.15
2018-04-26,0.0013950264979005864,93.28
2018-04-27,0.0019281399428889478,93.46
2018-04-30,0.00042790843412595937,93.5
2018-05-01,0.00042790843412595937,93.54
2018-05-02,-0.010532270146997723,92.56
2018-05-03,-0.01567927998892931,91.12
2018-05-04,0.01243338413707299,92.26
2018-05-07,0.005835937740066453,92.8
2018-05-08,-0.011270271591794861,91.76
2018-05-09,0.012993221315107596,92.96
2018-05-10,0.008889372195916834,93.79
2018-05-11,0.005316840519999341,94.29
2018-05-14,-0.009804911427085384,93.37
2018-05-15,-0.013695354709078322,92.1
2018-05-16,0.015514032641338419,93.54
2018-05-17,-0.0026765788434216305,93.29
2018-05-18,0.0028898204438153044,93.56
2018-05-21,0.004798468911573417,94.01
2018-05-22,-0.0005321415622096005,93.96
2018-05-23,0.0013830431547475245,94.09
2018-05-24,-0.0006382036086061604,94.03
2018-05-25,0.0005318585381695491,94.08
2018-05-28,0.0,94.08
2018-05-29,-0.008218681024531447,93.31
2018-05-30,0.006941849512001193,93.96
2018-05-31,-0.017608116996289346,92.32
2018-06-01,0.004862160516842403,92.77
2018-06-04,0.011680516386890352,93.86
2018-06-05,0.000638795926430769,93.92
2018-06-06,-0.0001060056183970874,93.91
2018-06-07,-0.007159568655093827,93.24
2018-06-08,0.004494882861260236,93.66
2018-06-11,0.0017065430267709759,93.82
2018-06-12,0.0035108298182872743,94.15
2018-06-13,0.0018043711428491157,94.32
2018-06-14,0.005708674466981457,94.86
2018-06-15,0.0006327997400053671,94.92
2018-06-18,-0.0008433555243187479,94.84
2018-06-19,-0.006240431049455979,94.25
2018-06-20,0.0041294620233274905,94.64
2018-06-21,-0.016405842905925422,93.1
2018-06-22,-0.005060784193218889,92.63
2018-06-25,-0.004869838438317551,92.18
2018-06-26,0.005733531847760467,92.71
2018-06-27,-0.006601743634562476,92.1
2018-06-28,0.006601164294394673,92.71
2018-06-29,0.00720101037837387,93.38
2018-07-02,0.0022464747849303378,93.59
2018-07-03,0.004264892403357092,93.99
2018-07-04,0.0,93.99
2018-07-05,0.005834943558513849,94.54
2018-07-06,-0.004877877524353911,94.08
2018-07-09,0.01078364691521039,95.1
2018-07-10,0.010564003903476862,96.11
2018-07-11,-0.004484038290062808,95.68
2018-07-12,0.000626803517625276,95.74
2018-07-13,-0.009128538616925355,94.87
2018-07-16,-0.01679423704341293,93.29
2018-07-17,0.014367294365055305,94.64
2018-07-18,-0.00021102226363176716,94.62
2018-07-19,0.01791064254282135,96.33
2018-07-20,-0.005726364373446943,95.78
2018-07-23,-0.006704424511547316,95.14
2018-07-24,-0.004107423928168082,94.75
2018-07-25,-0.00021102226363176716,94.73
2018-07-26,0.014045892973361547,96.07
2018-07-27,0.01917890340910636,102.9
2018-07-30,-0.003894574017675104,102.5
2018-07-31,-0.0006832333507584175,102.43
2018-08-01,0.0,102.43
2018-08-02,0.00535563296104852,102.98
2018-08-03,0.010817281675353292,104.1
2018-08-06,0.0010564417688323521,104.21
2018-08-07,-0.006353138514331565,103.55
2018-08-08,-0.0057142955327796185,102.96
2018-08-09,0.009088573508331166,103.9
2018-08-10,-0.014737058978564822,102.38
2018-08-13,-0.009618106045941344,101.4
2018-08-14,0.005703702916678026,101.98
2018-08-15,-0.006295776877878835,101.34
2018-08-16,0.0032507107101751817,101.67
2018-08-17,0.010663937561463279,102.76
2018-08-20,0.0009725269423317634,102.86
2018-08-21,0.004171288068810547,103.29
2018-08-22,-0.0010655675154717485,103.18
2018-08-23,-0.0026204303305904235,102.91
2018-08-24,0.008610820247895121,103.8
2018-08-27,0.007103708808961639,104.54
2018-08-28,-0.00623741227418308,103.89
2018-08-29,0.007766760478822734,104.7
2018-08-30,0.0,104.7
2018-08-31,9.599539229498677e-05,104.71
2018-09-03,0.0,104.71
2018-09-04,0.015823151045992384,106.38
2018-09-05,0.01677845123881787,108.18
2018-09-06,0.007092786613222892,108.95
2018-09-07,-0.009683736392629422,107.9
2018-09-10,0.006098367101851113,108.56
2018-09-11,-0.0003680677286166319,108.52
2018-09-12,0.007985034586328042,109.39
2018-09-13,0.012987298752612255,110.82
2018-09-14,0.010323528532982972,111.97
2018-09-17,-0.006001975875634689,111.3
2018-09-18,0.0026026102698142113,111.59
2018-09-19,-0.004130518859885926,111.13
2018-09-20,-0.005775646984590428,110.49
2018-09-21,-0.0015401854769554319,110.32
2018-09-24,0.0005438520856412762,110.38
2018-09-25,-0.014785772781935146,108.76
2018-09-26,-0.0014720829826753016,108.6
2018-09-27,-0.0023968701997538603,108.34
2018-09-28,-0.005553391573994022,107.74
2018-10-01,0.00027796136516015826,107.77
2018-10-02,0.00351979823600427,108.15
2018-10-03,-0.0013879627748488112,108.0
2018-10-04,-0.008461699414959271,107.09
2018-10-05,0.0007467211343664971,107.17
2018-10-08,0.004654152609801338,107.67
2018-10-09,-0.018277011639783545,105.72
2018-10-10,-0.01928272247011859,102.42
2018-10-11,-0.00833362842109943,101.57
2018-10-12,0.0007876896910049694,101.65
2018-10-15,0.004906941247999662,102.15
2018-10-16,0.01917890340910636,105.6
2018-10-17,-0.005507136477126606,105.02
2018-10-18,-0.0071666189767647616,104.27
2018-10-19,0.00047988483685076997,104.32
2018-10-22,-0.0033606406322477327,103.97
2018-10-23,-0.002792896507091907,103.68
2018-10-24,-0.01928272247011859,100.08
2018-10-25,0.01201749971731027,101.29
2018-10-26,-0.009224414394286498,100.36
2018-10-29,-0.0019949886672151673,100.16
2018-10-30,0.012008607187973582,101.37
2018-10-31,0.005803129226950124,101.96
2018-11-01,0.011893985286962432,103.18
2018-11-02,0.005991017959596889,103.8
2018-11-05,-0.018670208724189605,101.88
2018-11-06,0.01917890340910636,104.1
2018-11-07,0.009655237812548838,105.11
2018-11-08,0.00018998195228592005,105.13
2018-11-09,-0.008022091102912384,104.29
2018-11-12,-0.01928272247011859,101.77
2018-11-13,0.005976107445049789,102.38
2018-11-14,-0.002934300853054076,102.08
2018-11-15,0.01917890340910636,104.79
2018-11-16,0.01411885818082208,106.28
2018-11-19,-0.010403933715392907,105.18
2018-11-20,-0.008306402843575186,104.31
2018-11-21,-0.007795304591202003,103.5
2018-11-22,0.0,103.5
2018-11-23,0.0038575500772975156,103.9
2018-11-26,-0.002023044976229223,103.69
2018-11-27,-0.013495658105334995,102.3
2018-11-28,0.016769600945946726,104.03
2018-11-29,-0.0017314981781481424,103.85
2018-11-30,0.001924147640048925,104.05
2018-12-03,0.003932258527605121,104.46
2018-12-04,-0.014657904108976784,102.94
2018-12-05,0.0,102.94
2018-12-06,-0.012807669158973807,101.63
2018-12-07,-0.018471553568002102,99.77
2018-12-10,-0.006636976080629028,99.11
2018-12-11,-0.004449886073630887,98.67
2018-12-12,0.012689151115987937,99.93
2018-12-13,0.0038954030563314677,100.32
2018-12-14,0.00019898020212653455,100.34
2018-12-17,-0.017087157523700117,98.64
2018-12-18,-0.007122303494841818,97.94
2018-12-19,-0.01928272247011859,95.59
2018-12-20,-0.006086485128442073,95.01
2018-12-21,-0.015486296071000596,93.55
2018-12-24,-0.01928272247011859,89.7
2018-12-26,0.01917890340910636,91.77
2018-12-27,0.006516719980153912,92.37
2018-12-28,0.0035666319995692176,92.7
2018-12-31,0.014670854796116389,94.07
2019-01-02,-0.01928272247011859,90.18
2019-01-03,-0.01216064179164821,89.09
2019-01-04,0.01917890340910636,91.07
2019-01-07,0.009616611808824924,91.95
2019-01-08,0.01692987744783742,93.52
2019-01-09,-0.00042809161814262657,93.48
2019-01-10,0.011698307202481183,94.58
2019-01-11,0.001584743630226306,94.73
2019-01-14,-0.00816121228070678,93.96
2019-01-15,0.009005330025058668,94.81
2019-01-16,-0.0010555569042237877,94.71
2019-01-17,0.012798745513158105,95.93
2019-01-18,0.018180724487324367,97.69
2019-01-21,0.0,97.69
2019-01-22,-0.012878573975365118,96.44
2019-01-23,0.00969980442453785,97.38
2019-01-24,-0.0025703003937837554,97.13
2019-01-25,0.002673423217442652,97.39
2019-01-28,0.005018386806462344,97.88
2019-01-29,0.0006128121922468237,97.94
2019-01-30,0.00020397919482954808,97.96
2019-01-31,0.011772432194052346,99.12
2019-02-01,0.004328618000955334,99.55
2019-02-04,0.0030094670080079524,99.85
2019-02-05,0.012143962686552814,101.07
2019-02-06,0.005131809710846997,101.59
2019-02-07,0.00353773483014454,101.95
2019-02-08,-0.00550814199996069,101.39
2019-02-11,0.0030533338283483874,101.7
2019-02-12,0.006077494560027172,102.32
2019-02-13,0.004680031548129372,102.8
2019-02-14,-0.010069527956860598,101.77
2019-02-15,0.0016686071005458302,101.94
2019-02-18,0.0,101.94
2019-02-19,-0.0038333378604155934,101.55
2019-02-20,0.006967669315593448,102.26
2019-02-21,0.008374832982179926,103.12
2019-02-22,-0.010430205974818916,102.05
2019-02-25,-0.00481356664554362,101.56
2019-02-26,-0.002465035705628411,101.31
2019-02-27,0.000986513235764608,101.41
2019-02-28,0.0031510302855337915,101.73
2019-03-01,-0.009085145234207675,100.81
2019-03-04,0.007904675569978368,101.61
2019-03-05,-0.0013789503151231427,101.47
2019-03-06,-0.009704940963729838,100.49
2019-03-07,-0.006088497340557459,99.88
2019-03-08,0.005889622076183054,100.47
2019-03-11,0.01530921368384019,102.02
2019-03-12,0.0023492383773765224,102.26
2019-03-13,0.00019598079450956142,102.28
2019-03-14,0.005946285748968462,102.89
2019-03-15,0.0015537922393830362,103.05
2019-03-18,0.006384575155195154,103.71
2019-03-19,-0.0010615632589470534,103.6
2019-03-20,0.00337230737419114,103.95
2019-03-21,0.015180195595029634,105.54
2019-03-22,-0.016334687556487152,103.83
2019-03-25,0.006527648469583422,104.51
2019-03-26,0.00885963725319408,105.44
2019-03-27,0.0007587121051655302,105.52
2019-03-28,0.006329923694869773,106.19
2019-03-29,0.0018812293778726241,106.39
2019-04-01,0.012330663928065685,107.71
2019-04-02,-0.004559378186039027,107.22
2019-04-03,0.0023292851079329867,107.47
2019-04-04,0.005844885329560974,108.1
2019-04-05,0.005902545652613831,108.74
2019-04-08,0.0022963613429079714,108.99
2019-04-09,-0.007644142151757061,108.16
2019-04-10,0.008103081183127163,109.04
2019-04-11,0.005669895719122579,109.66
2019-04-12,0.005909504432282582,110.31
2019-04-15,-0.003814265069106997,109.89
2019-04-16,-0.0024600233778082053,109.62
2019-04-17,-0.017670202530837727,107.7
2019-04-18,0.004723825148895924,108.21
2019-04-19,0.0,108.21
2019-04-22,0.006631959858047705,108.93
2019-04-23,0.010320559339846384,110.06
2019-04-24,-0.0010905944820295721,109.94
2019-04-25,-0.004466962036050168,109.45
2019-04-26,0.017838935809577502,111.42
2019-04-29,-0.0008984034435462404,111.32
2019-04-30,-0.0007192586044651955,111.24
2019-05-01,0.014015324885161244,112.81
2019-05-02,0.001682583661852705,113.0
2019-05-03,0.0074938508285819026,113.85
2019-05-06,0.010224550677217833,115.02
2019-05-07,-0.0091709246690949,113.97
2019-05-08,0.0001749846892862601,113.99
2019-05-09,-0.008722934412453268,113.0
2019-05-10,0.005295951659182505,113.6
2019-05-13,-0.007066911903976103,112.8
2019-05-14,0.0015947277454988339,112.98
2019-05-15,0.002298356753463751,113.24
2019-05-16,0.007653636061689823,114.11
2019-05-17,-0.002896189912100378,113.78
2019-05-20,-0.006525243168476198,113.04
2019-05-21,0.0038844457623845325,113.48
2019-05-22,-0.002912236447052097,113.15
2019-05-23,-0.0016804111002126862,112.96
2019-05-24,-0.000266035384274939,112.93
2019-05-27,0.0,112.93
2019-05-28,-0.000266035384274939,112.9
2019-05-29,-0.0017725700745084424,112.7
2019-05-30,0.0071612965956010174,113.51
2019-05-31,-0.002116237652153904,113.27
2019-06-03,0.006687588149816602,114.03
2019-06-04,0.014712242261632619,115.72
2019-06-05,0.01211136048234437,117.13
2019-06-06,0.01917890340910636,120.23
2019-06-07,0.013958130468504156,121.92
2019-06-10,0.010606551137096796,123.22
2019-06-11,-0.0052075357079880225,122.58
2019-06-12,-0.007862831197466343,121.62
2019-06-13,-0.007427515828796584,120.72
2019-06-14,-0.005232666551727209,120.09
2019-06-17,0.0006657783204203281,120.17
2019-06-18,-0.005675072806523562,119.49
2019-06-19,-0.0006702245503046866,119.41
2019-06-20,0.0033444012503896525,119.81
2019-06-21,-0.0035954559119740943,119.38
2019-06-24,-0.005038672818222056,118.78
2019-06-25,0.019013100015251166,121.06
2019-06-26,-0.015148156172297436,119.24
2019-06-27,0.01917890340910636,121.55
2019-06-28,0.01917890340910636,124.34
2019-07-01,-0.0005631585440096245,124.27
2019-07-02,-0.0058913197956241194,123.54
2019-07-03,0.019081779312394624,125.92
2019-07-04,0.0,125.92
2019-07-05,-0.010457489436344107,124.61
2019-07-08,-0.0049884215114262545,123.99
2019-07-09,0.0006447920769021348,124.07
2019-07-10,-0.0039568178891836985,123.58
2019-07-11,0.0035536781992976632,124.02
2019-07-12,-0.004931138101741278,123.41
2019-07-15,-0.003978905355551375,122.92
2019-07-16,0.0019500973236138111,123.16
2019-07-17,0.0029994970077386143,123.53
2019-07-18,0.006696528122370872,124.36
2019-07-19,-0.00774995346006136,123.4
2019-07-22,-0.0019468939687445784,123.16
2019-07-23,0.010901363626618372,124.51
2019-07-24,-0.009846316262873115,123.29
2019-07-25,-0.0030055120298288483,122.92
2019-07-26,0.012692113284650836,124.49
2019-07-29,0.003608481592139525,124.94
2019-07-30,-0.009085145234207675,123.81
2019-07-31,-0.01928272247011859,121.02
2019-08-01,-0.01928272247011859,117.56
2019-08-02,0.003905364128461731,118.02
2019-08-05,-0.00799689006160397,117.08
2019-08-06,0.01917890340910636,119.72
2019-08-07,0.016074116402772624,121.66
2019-08-08,0.009896864077310854,122.87
2019-08-09,-0.014675155277363374,121.08
2019-08-12,-0.008793550181992644,120.02
2019-08-13,0.009948350653187638,121.22
2019-08-14,-0.01772720248097826,119.09
2019-08-15,-0.006402452024985443,118.33
2019-08-16,0.01609576536485331,120.25
2019-08-19,-0.000249031005647099,120.22
2019-08-20,-0.011208582119387174,118.88
2019-08-21,0.0037778549112651673,119.33
2019-08-22,0.010088935108540649,120.54
2019-08-23,-0.0023257023503510336,120.26
2019-08-26,0.006051651761767457,120.99
2019-08-27,0.004206141770401669,121.5
2019-08-28,0.002958618967366398,121.86
2019-08-29,-0.0013959739183494713,121.69
2019-08-30,0.0043455444302310485,122.22
2019-09-02,0.0,122.22
2019-09-03,-0.01928272247011859,119.65
2019-09-04,0.018958153181205178,121.94
2019-09-05,-0.006087491233993641,121.2
2019-09-06,-0.002643490945417511,120.88
2019-09-09,-0.014834488958455605,119.1
2019-09-10,8.399647219752854e-05,119.11
2019-09-11,-0.004038142333097332,118.63
2019-09-12,-0.004900990256706982,118.05
2019-09-13,0.0029606130568851224,118.4
2019-09-16,-0.016348918221333848,116.48
2019-09-17,0.004539680042031891,117.01
2019-09-18,0.010964667724689712,118.3
2019-09-19,-0.0038112536089955655,117.85
2019-09-20,0.0016955617224415028,118.05
2019-09-23,0.0004239101374002442,118.1
2019-09-24,0.0034659865231744325,118.51
2019-09-25,0.005133799471538537,119.12
2019-09-26,-0.0016804111002126862,118.92
2019-09-27,-0.002104212302717246,118.67
2019-09-30,-0.0018557207852194836,118.45
2019-10-01,-0.006606776765144464,117.67
2019-10-02,-0.01928272247011859,115.35
2019-10-03,-0.003125880477792961,114.99
2019-10-04,0.01917890340910636,117.33
2019-10-07,-0.006584631180067301,116.56
2019-10-08,-0.015388802567951361,114.78
2019-10-09,0.014702388258542259,116.48
2019-10-10,-0.001460065376882659,116.31
2019-10-11,0.00017198520969599154,116.33
2019-10-14,-0.004134535424197155,115.85
2019-10-15,-0.005799786292537782,115.18
2019-10-16,0.0025148351496155725,115.47
2019-10-17,0.009309531525720607,116.55
2019-10-18,0.010497705768656556,117.78
2019-10-21,0.0010184811719273939,117.9
2019-10-22,-0.010572694481239748,116.66
2019-10-23,0.006067555101270312,117.37
2019-10-24,-0.0002560327735935133,117.34
2019-10-25,0.004591443173951777,117.88
2019-10-28,0.0027113210449043455,118.2
2019-10-29,0.0026195659392168986,118.51
2019-10-30,0.006224586999939574,119.25
2019-10-31,-0.009266804510532587,118.15
2019-11-01,-0.01928272247011859,110.79
2019-11-04,-0.01928272247011859,108.67
2019-11-05,-9.200423225956157e-05,108.66
2019-11-06,0.007609970582915566,109.49
2019-11-07,-0.0008223380272516177,109.4
2019-11-08,-0.0036626995019039005,109.0
2019-11-11,-0.0038604419264788954,108.58
2019-11-12,-0.003321510112393772,108.22
2019-11-13,0.012854031822208888,109.62
2019-11-14,0.007724092245663127,110.47
2019-11-15,-0.004627691264905876,109.96
2019-11-18,0.003450041755848096,110.34
2019-11-19,0.0014489497651044385,110.5
2019-11-20,0.0018083639239010942,110.7
2019-11-21,0.005405364658550685,111.3
2019-11-22,-0.010658601617699472,110.12
2019-11-25,0.007508738730127369,110.95
2019-11-26,0.014406723004644243,112.56
2019-11-27,0.002396126993477715,112.83
2019-11-28,0.0,112.83
2019-11-29,-0.006312884390039467,112.12
2019-12-02,-0.0009814814954237732,112.01
2019-12-03,0.00622955596132234,112.71
2019-12-04,-0.00828522790683458,111.78
2019-12-05,0.0015198444510783162,111.95
2019-12-06,0.0011603265606915934,112.08
2019-12-09,0.004894999915764888,112.63
2019-12-10,-0.006144840923742481,111.94
2019-12-11,0.005612221979451706,112.57
2019-12-12,0.014200691201083021,114.18
2019-12-13,-0.0018406930364811686,113.97
2019-12-16,0.003066294111560706,114.32
2019-12-17,-0.008521202543681512,113.35
2019-12-18,-0.002384841475159372,113.08
2019-12-19,0.001590734111351766,113.26
2019-12-20,0.014898464661966622,114.96
2019-12-23,0.0035596568971970164,115.37
2019-12-24,-0.005562441734508662,114.73
2019-12-26,0.000783692832535606,114.82
2019-12-27,0.0017404844777711322,115.02
2019-12-30,0.00641339017716369,115.76
2019-12-31,-0.0012097314300921036,115.62
2020-01-02,-0.016921362130092796,113.68
2020-01-03,0.0031619956186332908,114.04
2020-01-06,8.799612822723034e-05,114.05
2020-01-07,-0.010046295457623453,112.91
2020-01-08,0.0027422366299018714,113.22
2020-01-09,0.012638792906182007,114.66
2020-01-10,0.00980675619038374,115.79
2020-01-13,0.003534745420129541,116.2
2020-01-14,-0.0006021812747552441,116.13
2020-01-15,0.004981571343963874,116.71
2020-01-16,0.012855019049949906,118.22
2020-01-17,-0.007642126806921425,117.32
2020-01-20,0.0,117.32
2020-01-21,-0.014509759267697746,115.63
2020-01-22,0.0003459401558036208,115.67
2020-01-23,0.014590045759651055,117.37
2020-01-24,-0.002132271676353615,117.12
2020-01-27,-0.005393518908711899,116.49
2020-01-28,-0.004473993399446605,115.97
2020-01-29,-0.00025903354629246074,115.94
2020-01-30,0.0051616557055167035,116.54
2020-01-31,-0.008877286770945925,115.51
2020-02-03,0.014865952138484594,117.24
2020-02-04,-0.0024770653949016943,116.95
2020-02-05,0.007836216499298523,117.87
2020-02-06,-0.0028891696340271555,117.53
2020-02-07,-0.007087053945654716,116.7
2020-02-10,-0.007741891252064517,115.8
2020-02-11,0.0021566727086460616,116.05
2020-02-12,-0.011614184289912505,114.71
2020-02-13,0.01290536637244553,116.2
2020-02-14,0.004036840982250673,116.67
2020-02-17,0.0,116.67
2020-02-18,-0.012158617323931439,115.26
2020-02-19,-0.0021713556874404217,115.01
2020-02-20,-0.0006962423204432393,114.93
2020-02-21,-0.01928272247011859,111.98
2020-02-24,-0.01928272247011859,109.21
2020-02-25,-0.01928272247011859,106.94
2020-02-26,-0.01928272247011859,104.68
2020-02-27,-0.01928272247011859,102.4
2020-02-28,-0.01307308156785277,101.07
2020-03-02,0.01917890340910636,103.58
2020-03-03,-0.007948505842510738,102.76
2020-03-04,0.01917890340910636,107.44
2020-03-05,-0.01928272247011859,103.98
2020-03-06,0.01917890340910636,107.3
2020-03-09,-0.01928272247011859,101.45
2020-03-10,0.01917890340910636,103.99
2020-03-11,-0.01928272247011859,99.08
2020-03-12,-0.01928272247011859,94.4
2020-03-13,0.01917890340910636,96.39
2020-03-16,-0.01928272247011859,87.88
2020-03-17,0.01917890340910636,96.45
2020-03-18,0.003105173953414271,96.75
2020-03-19,0.01917890340910636,98.88
2020-03-20,-0.01928272247011859,92.51
2020-03-23,-0.01928272247011859,83.93
2020-03-24,0.01917890340910636,88.06
2020-03-25,0.01917890340910636,90.18
2020-03-26,0.01917890340910636,96.2
2020-03-27,-0.01928272247011859,94.0
2020-03-30,0.01917890340910636,100.48
2020-03-31,-0.009399032845844328,99.54
2020-04-01,-0.01928272247011859,96.21
2020-04-02,-0.0006241947690280883,96.15
2020-04-03,-0.01928272247011859,94.19
2020-04-06,0.01917890340910636,100.76
2020-04-07,0.0035666319995692176,101.12
2020-04-08,0.01917890340910636,104.11
2020-04-09,0.01917890340910636,107.27
2020-04-10,0.0,107.27
2020-04-13,-0.01928272247011859,102.35
2020-04-14,0.016185308365971263,104.02
2020-04-15,-0.01928272247011859,100.93
2020-04-16,0.009073709108815374,101.85
2020-04-17,0.010645138923077795,102.94
2020-04-20,0.01917890340910636,106.94
2020-04-21,-0.007697550269904452,106.12
2020-04-22,0.0016945634160681255,106.3
2020-04-23,-0.012114080071042524,105.02
2020-04-24,-0.008606933615448063,104.12
2020-04-27,0.01917890340910636,112.58
2020-04-28,-0.012513974180363359,111.18
2020-04-29,-0.009943270878089723,110.08
2020-04-30,-0.01928272247011859,107.08
2020-05-01,-0.008816753594711268,106.14
2020-05-04,0.006292162759348063,106.81
2020-05-05,-0.011772019120137771,105.56
2020-05-06,-0.00665308275513464,104.86
2020-05-07,0.005800146581472857,105.47
2020-05-08,0.01917890340910636,107.53
2020-05-11,-0.011410856902277455,106.31
2020-05-12,-0.01928272247011859,103.95
2020-05-13,-0.014828399306601032,102.42
2020-05-14,0.0003909235794196792,102.46
2020-05-15,-0.009414174610617288,101.5
2020-05-18,0.01917890340910636,104.15
2020-05-19,-0.004041154476553654,103.73
2020-05-20,0.006533609413479208,104.41
2020-05-21,0.006491882060000645,105.09
2020-05-22,9.499548778572753e-05,105.1
2020-05-25,0.0,105.1
2020-05-26,0.01917890340910636,109.55
2020-05-27,0.01917890340910636,112.55
2020-05-28,-0.00847682699339226,111.6
2020-05-29,-0.0018837731871080756,111.39
2020-06-01,0.0002689638259871356,111.42
2020-06-02,0.005817048121551467,112.07
2020-06-03,0.01073912858131645,113.28
2020-06-04,-0.010114984407820623,112.14
2020-06-05,0.011173345042568708,113.4
2020-06-08,0.0015857420462392193,113.58
2020-06-09,-0.00982106920781457,112.47
2020-06-10,-0.007407366928422233,111.64
2020-06-11,-0.01928272247011859,104.25
2020-06-12,0.010590719819782431,105.36
2020-06-15,0.0004748872232112397,105.41
2020-06-16,0.018609759249156834,107.39
2020-06-17,-0.004480020321708317,106.91
2020-06-18,0.0007477203874247538,106.99
2020-06-19,0.005684810800109135,107.6
2020-06-22,-0.0004651081460266164,107.55
2020-06-23,-0.001023523621640415,107.44
2020-06-24,-0.014059371409195182,105.94
2020-06-25,0.015547508674470871,107.6
2020-06-26,0.001114378849179211,107.72
2020-06-29,0.014103082370857143,109.25
2020-06-30,0.01917890340910636,111.98
2020-07-01,0.004455061460238493,112.48
2020-07-02,0.01917890340910636,114.97
2020-07-03,0.0,114.97
2020-07-06,0.00251882509495322,115.26
2020-07-07,-0.0009544553476241343,115.15
2020-07-08,-0.01928272247011859,112.93
2020-07-09,0.007323120379781322,113.76
2020-07-10,0.010406662361670233,114.95
2020-07-13,-0.013311202259690033,113.43
2020-07-14,0.01917890340910636,116.31
2020-07-15,0.013577408413687547,117.9
2020-07-16,-0.0056137275245850635,117.24
2020-07-17,0.01825633436201012,119.4
2020-07-20,-0.0009214243810899475,119.29
2020-07-21,-0.009348561952397864,118.18
2020-07-22,0.0027043399740777734,118.5
2020-07-23,-0.0005061280612011404,118.44
2020-07-24,0.0034560210733889127,118.85
2020-07-27,0.008378799614865673,119.85
2020-07-28,-0.01513292733619141,118.05
2020-07-29,0.0064173645977924215,118.81
2020-07-30,-0.007603836026732041,117.91
2020-07-31,-0.01928272247011859,115.2
2020-08-03,0.01917890340910636,118.66
2020-08-04,-0.0003370567972608414,118.62
2020-08-05,-0.002194405948535754,118.36
2020-08-06,-0.005931556953437598,117.66
2020-08-07,0.013423500332025513,119.25
2020-08-10,-0.019048271893774355,117.0
2020-08-11,-0.002224472304986675,116.74
2020-08-12,0.011497647991821819,118.09
2020-08-13,0.0036343876051259457,118.52
2020-08-14,-0.0002530320098990645,118.49
2020-08-17,-0.0020270530846325328,118.25
2020-08-18,-0.0031339055561629184,117.88
2020-08-19,-0.0016133006699745437,117.69
2020-08-20,-0.0011907086122215037,117.55
2020-08-21,0.002124741137999207,117.8
2020-08-24,0.011059616358539094,119.11
2020-08-25,-0.008262036823905763,118.13
2020-08-26,0.0039711047161264754,118.6
2020-08-27,0.012151866091141975,120.05
2020-08-28,-0.01612226813404856,118.13
2020-08-31,0.0021985813478186877,118.39
2020-09-01,0.009332318140467907,119.5
2020-09-02,0.01917890340910636,122.26
2020-09-03,-0.01928272247011859,119.17
2020-09-04,-0.0037831470852687696,118.72
2020-09-07,0.0,118.72
2020-09-08,-0.01928272247011859,116.06
2020-09-09,0.015644976624575598,117.89
2020-09-10,-0.005955700025282541,117.19
2020-09-11,0.00993448914353044,118.36
2020-09-14,0.006064573244378592,119.08
2020-09-15,-0.006317916066961574,118.33
2020-09-16,-0.004744236112198272,117.77
2020-09-17,-0.015488327286723778,115.96
2020-09-18,-0.007965641652372256,115.04
2020-09-21,-0.013917399274030426,113.45
2020-09-22,0.0077270691582177874,114.33
2020-09-23,-0.01928272247011859,112.14
2020-09-24,0.0010694279580201523,112.26
2020-09-25,-0.0014260162780789206,112.1
2020-09-28,0.002316315269292522,112.36
2020-09-29,0.002311326825023628,112.62
2020-09-30,0.005136784105152353,113.2
2020-10-01,0.004407273685735877,113.7
2020-10-02,-0.007504085352954479,112.85
2020-10-05,0.014951664693111039,114.55
2020-10-06,8.699621571943491e-05,114.56
2020-10-07,0.0036592966001139913,114.98
2020-10-08,0.013305093379030781,116.52
2020-10-09,0.002485907569809538,116.81
2020-10-12,0.010474945693982633,118.04
2020-10-13,-0.004074288653405897,117.56
2020-10-14,-0.009572672175184739,116.44
2020-10-15,-0.0008593691519161912,116.34
2020-10-16,8.599630221203549e-05,116.35
2020-10-19,-0.010367557880260425,115.15
2020-10-20,0.01559673609927618,116.96
2020-10-21,0.006646860596777035,117.74
2020-10-22,0.004829320039458381,118.31
2020-10-23,0.0003379428908681781,118.35
2020-10-26,-0.007548417757329623,117.46
2020-10-27,-0.015529968118307428,115.65
2020-10-28,-0.01928272247011859,112.34
2020-10-29,0.0053267874432171985,112.94
2020-10-30,0.010130512639256966,114.09
2020-11-02,0.01917890340910636,118.19
2020-11-03,0.011525327518266569,119.56
2020-11-04,-0.004275125339713287,119.05
2020-11-05,0.01917890340910636,122.91
2020-11-06,0.005598300233585038,123.6
2020-11-09,-0.003485065793182637,123.17
2020-11-10,0.01917890340910636,127.61
2020-11-11,-0.018507206715847775,125.27
2020-11-12,-0.008015034747328393,124.27
2020-11-13,0.0064173645977924215,125.07
2020-11-16,0.014210550149113694,126.86
2020-11-17,0.003933254602571633,127.36
2020-11-18,-0.007803367229841645,126.37
2020-11-19,0.006781950496330483,127.23
2020-11-20,0.004548639237376679,127.81
2020-11-23,-0.007460762402009921,126.86
2020-11-24,0.00800785140152831,127.88
2020-11-25,-0.012511948997210911,126.29
2020-11-26,0.0,126.29
2020-11-27,0.0074938508285819026,127.24
2020-11-30,-0.007256263114778063,126.32
2020-12-01,0.011805045449762604,127.82
2020-12-02,-0.012280092641814703,126.26
2020-12-03,-0.003093780808316457,125.87
2020-12-04,0.014277588418131783,127.68
2020-12-07,0.007412459715453809,128.63
2020-12-08,0.00434454876585145,129.19
2020-12-09,0.0026285423536878626,129.53
2020-12-10,0.007230794680460353,130.47
2020-12-11,-0.00015301170569395473,130.45
2020-12-14,-0.015761563404550157,128.41
2020-12-15,0.014304205307930066,130.26
2020-12-16,0.006428294173074186,131.1
2020-12-17,0.015441169165797044,133.14
2020-12-18,0.007184132213407124,134.1
2020-12-21,0.00587371590667662,134.89
2020-12-22,-0.0028951870122153316,134.5
2020-12-23,0.00022297513919598843,134.53
2020-12-24,0.008659398949118364,135.7
2020-12-28,-0.00014701080555896599,135.68
2020-12-29,-0.0027307250381606173,135.31
2020-12-30,0.007950312346878992,136.39
2020-12-31,0.0036592966001139913,136.89
2021-01-04,-0.01928272247011859,134.0
2021-01-05,-0.0022415103082534175,133.7
2021-01-06,0.01917890340910636,137.72
2021-01-07,0.014274630942199499,139.7
2021-01-08,-0.004520200731754847,139.07
2021-01-11,-0.002015028807617082,138.79
2021-01-12,-0.0046216634525798345,138.15
2021-01-13,0.0031081646478684543,138.58
2021-01-14,0.006258375450454226,139.45
2021-01-15,-0.004455912850600934,138.83
2021-01-18,0.0,138.83
2021-01-19,-0.011373432982825591,137.26
2021-01-20,0.01917890340910636,140.62
2021-01-21,-0.018011232801851774,138.11
2021-01-22,0.0005788324441735365,138.19
2021-01-25,0.009936469370959619,139.57
2021-01-26,-0.005172353587738936,138.85
2021-01-27,-0.01928272247011859,133.25
2021-01-28,0.014897479449513027,135.25
2021-01-29,-0.017001713519986274,132.97
2021-02-01,0.008387724480881327,134.09
2021-02-02,0.01917890340910636,136.94
2021-02-03,-0.0027788574504359906,136.56
2021-02-04,0.010489789279698524,138.0
2021-02-05,0.019091590255520513,140.66
2021-02-08,0.009340243797802163,141.98
2021-02-09,0.0013371056756484986,142.17
2021-02-10,0.007568288119912765,143.25
2021-02-11,-0.0019569135068440214,142.97
2021-02-12,0.011544109617740076,144.63
2021-02-15,0.0,144.63
2021-02-16,-0.007147482505015913,143.6
2021-02-17,-0.002719695019966006,143.21
2021-02-18,-0.01562341239308532,140.99
2021-02-19,-0.01928272247011859,132.24
2021-02-22,-0.01928272247011859,129.1
2021-02-23,-0.006372259791029592,128.28
2021-02-24,0.003735016134993076,128.76
2021-02-25,0.011889044392413431,130.3
2021-02-26,-0.0017665594477203124,130.07
2021-03-01,0.004066719674761287,130.6
2021-03-02,-0.0019158340386068824,130.35
2021-03-03,0.00535563296104852,131.05
2021-03-04,-0.004972341626557867,130.4
2021-03-05,0.01917890340910636,134.09
2021-03-08,0.01917890340910636,137.71
2021-03-09,-0.00014501051351626957,137.69
2021-03-10,0.012199285206981757,139.38
2021-03-11,0.0,139.38
2021-03-12,0.009923597822576487,140.77
2021-03-15,0.009614630947903092,142.13
2021-03-16,-0.01153426461420228,140.5
2021-03-17,0.005536644457761812,141.28
2021-03-18,0.0016266762445211638,141.51
2021-03-19,-0.015669122012073093,139.31
2021-03-22,0.016233520507273846,141.59
2021-03-23,-0.005807832858012233,140.77
2021-03-24,0.007572257953149894,141.84
2021-03-25,0.00443216343658594,142.47
2021-03-26,0.01636043523501271,144.82
2021-03-29,-0.0003450595261914574,144.77
2021-03-30,-0.011742676144768024,143.08
2021-03-31,-0.009903881931935874,141.67
2021-04-01,0.015409658991454519,143.87
2021-04-02,0.0,143.87
2021-04-05,0.005683816468297709,144.69
2021-04-06,0.008807103360147863,145.97
2021-04-07,-0.016439389326805075,143.59
2021-04-08,0.000626803517625276,143.68
2021-04-09,0.010523433924958366,145.2
2021-04-12,0.006931918640795508,146.21
2021-04-13,0.0008206631638490061,146.33
2021-04-14,-0.0035603304614238484,145.81
2021-04-15,0.009487847686689596,147.2
2021-04-16,0.005960202651145745,148.08
2021-04-19,0.010947852964494843,149.71
2021-04-20,0.004731787415713526,150.42
2021-04-21,0.010054285845700242,151.94
2021-04-22,-0.012383358265387792,150.07
2021-04-23,0.00915397424143714,151.45
2021-04-26,-0.00350613932928759,150.92
2021-04-27,0.0047596548503290115,151.64
2021-04-28,-0.003434892494598845,151.12
2021-04-29,-0.0013238759371617765,150.92
2021-04-30,-0.0007292658497107912,150.81
2021-05-03,0.01088158027411112,152.46
2021-05-04,0.01665158955574387,155.02
2021-05-05,-0.005433736041014521,154.18
2021-05-06,0.015062981527040328,156.52
2021-05-07,0.006623019308233707,157.56
2021-05-10,-0.013288907704019637,155.48
2021-05-11,-0.009629212417212287,153.99
2021-05-12,-0.015576689164217313,151.61
2021-05-13,0.01917890340910636,154.62
2021-05-14,-0.007009509310873754,153.54
2021-05-17,-0.002804930141099114,153.11
2021-05-18,-0.014406273837745131,150.92
2021-05-19,-0.009186062980275272,149.54
2021-05-20,0.001336107011361842,149.74
2021-05-21,-0.0007352702449281699,149.63
2021-05-24,-0.0024760629152682924,149.26
2021-05-25,-0.010303903352558017,147.73
2021-05-26,0.0008796130270075069,147.86
2021-05-27,-0.007399307481944965,146.77
2021-05-28,0.003672249032306985,147.31
2021-05-31,0.0,147.31
2021-06-01,-0.0029232685891983352,146.88
2021-06-02,-0.00834068702515976,145.66
2021-06-03,-0.0017865950108455488,145.4
2021-06-04,0.0010993954433010642,145.56
2021-06-07,-0.01928272247011859,142.52
2021-06-08,0.001822338532038295,142.78
2021-06-09,-0.004281151063528334,142.17
2021-06-10,0.01917890340910636,144.99
2021-06-11,0.0057772793372582575,145.83
2021-06-14,-0.016176130990083595,143.49
2021-06-15,0.005836931920630439,144.33
2021-06-16,-0.011918746913528943,142.62
2021-06-17,-0.007813445619556889,141.51
2021-06-18,-0.010013972878278774,140.1
2021-06-21,0.010508590838645172,141.58
2021-06-22,0.0003529377101584926,141.63
2021-06-23,-0.010362505785586148,140.17
2021-06-24,7.099747961922954e-05,140.18
2021-06-25,0.005265114924273133,140.92
2021-06-28,-0.0014911111538833397,140.71
2021-06-29,-0.003060679103324796,140.28
2021-06-30,0.003984053110301713,140.84
2021-07-01,0.0019860265430555308,141.12
2021-07-02,-0.0050436980877901225,140.41
2021-07-05,0.0,140.41
2021-07-06,-0.00256729267748762,140.05
2021-07-07,0.006902125435431744,141.02
2021-07-08,-0.012487647119282073,139.27
2021-07-09,0.013620814102996372,141.18
2021-07-12,-0.005397540549159155,140.42
2021-07-13,-0.01376733635885789,138.5
2021-07-14,-0.0004330937715697201,138.44
2021-07-15,0.000866624372596911,138.56
2021-07-16,0.003458014171290715,139.04
2021-07-19,-0.01383222566684628,137.13
2021-07-20,-0.000802321774053333,137.02
2021-07-21,-0.007030657251291668,136.06
2021-07-22,-0.01026854147679878,134.67
2021-07-23,0.011590569085075723,136.24
2021-07-26,0.0035168087723688756,136.72
2021-07-27,0.0002929570838828423,136.76
2021-07-28,0.006486914401938416,137.65
2021-07-29,0.010119623453060205,139.05
2021-07-30,-0.01928272247011859,128.92
2021-08-02,0.0076496665514974894,129.91
2021-08-03,-0.009901862027800577,128.63
2021-08-04,-0.014565564679315215,126.77
2021-08-05,0.005741486079113313,127.5
2021-08-06,0.007267527431335364,128.43
2021-08-09,0.012765177334209045,130.08
2021-08-10,-0.006787986339546219,129.2
2021-08-11,0.018633316467678632,131.63
2021-08-12,0.007945351928537106,132.68
2021-08-13,0.0027851179558389446,133.05
2021-08-16,-0.001278817338446572,132.88
2021-08-17,0.000977522069585171,133.01
2021-08-18,-0.007244175795986957,132.05
2021-08-19,0.0027222912005958806,132.41
2021-08-20,0.008348057799995525,133.52
2021-08-23,-0.004202819485920414,132.96
2021-08-24,0.0,132.96
2021-08-25,0.00876150566857267,134.13
2021-08-26,-0.011020503283465419,132.66
2021-08-27,0.013997575243851593,134.53
2021-08-30,0.005189511163546934,135.23
2021-08-31,-0.0031850669447743294,134.8
2021-09-01,0.0015567875771397954,135.01
2021-09-02,0.0009625366129706583,135.14
2021-09-03,7.399726213497465e-05,135.15
2021-09-06,0.0,135.15
2021-09-07,-0.01928272247011859,131.08
2021-09-08,-0.0015271655238772261,130.88
2021-09-09,-0.01734048086788518,128.63
2021-09-10,-0.01928272247011859,125.84
2021-09-13,-0.008619037417655956,124.76
2021-09-14,-0.001444042127146934,124.58
2021-09-15,0.0004009196209873672,124.63
2021-09-16,-0.018871960500900974,122.3
2021-09-17,-0.008787497206349849,121.23
2021-09-20,0.005183542202146028,121.86
2021-09-21,-0.014881177521390109,120.06
2021-09-22,0.0018303239347222395,120.28
2021-09-23,0.006050657794650953,121.01
2021-09-24,-0.005385475676337837,120.36
2021-09-27,-0.000249031005647099,120.33
2021-09-28,-0.0024961126988816943,120.03
2021-09-29,0.002911756718936925,120.38
2021-09-30,-0.008592812698032038,119.35
2021-10-01,0.018512579856412442,121.58
2021-10-04,0.005823013302788775,122.29
2021-10-05,-0.0051653173122204925,121.66
2021-10-06,0.011766502396920621,123.1
2021-10-07,0.009378880477786681,124.26
2021-10-08,0.0020099786388648616,124.51
2021-10-11,0.0004818838753133277,124.57
2021-10-12,-0.000642206170245619,124.49
2021-10-13,0.01917890340910636,127.39
2021-10-14,0.004855194445094732,128.01
2021-10-15,0.0016386566685086348,128.22
2021-10-18,-0.003124877347524931,127.82
2021-10-19,-0.002114233417205511,127.55
2021-10-20,0.004770602558600546,128.16
2021-10-21,0.007074913671961985,129.07
2021-10-22,-0.010123065770985014,127.77
2021-10-25,0.0001569876767897752,127.79
2021-10-26,-0.007067918996424701,126.89
2021-10-27,-0.01245018288117113,125.32
2021-10-28,0.0052531778683686525,125.98
2021-10-29,-0.01928272247011859,120.78
2021-11-01,0.01917890340910636,125.18
2021-11-02,0.01757858732429282,127.4
2021-11-03,0.007818356840496834,128.4
2021-11-04,0.0011673184186730926,128.55
2021-11-05,0.01917890340910636,131.5
2021-11-08,-0.0065614795018464145,130.64
2021-11-09,-0.0021452995103211107,130.36
2021-11-10,-0.006000969856116876,129.58
2021-11-11,0.001927141868673229,129.83
2021-11-12,0.01270494924746428,131.49
2021-11-15,0.006292162759348063,132.32
2021-11-16,0.014405737307601267,134.24
2021-11-17,0.0015627782257373031,134.45
2021-11-18,-0.01928272247011859,129.64
2021-11-19,0.003926282056970043,130.15
2021-11-22,-0.01042717452504313,128.8
2021-11-23,0.006963697081509575,129.7
2021-11-24,-0.011788208716501148,128.18
2021-11-25,0.0,128.18
2021-11-26,-0.01232362488883976,126.61
2021-11-29,-0.005862148868574962,125.87
2021-11-30,-0.01928272247011859,119.59
2021-12-01,-0.01928272247011859,116.79
2021-12-02,0.01917890340910636,119.65
2021-12-03,-0.007129353553785355,118.8
2021-12-06,0.011882127099031853,120.22
2021-12-07,0.0004988755409016994,120.28
2021-12-08,0.004479950021705976,120.82
2021-12-09,-0.010734408161457753,119.53
2021-12-10,0.0017554582811025823,119.74
2021-12-13,-0.0094818106259127,118.61
2021-12-14,-0.014093853398444253,116.95
2021-12-15,0.012068877227409508,118.37
2021-12-16,0.0026993534650778294,118.69
2021-12-17,-0.01928272247011859,115.89
2021-12-20,-0.01928272247011859,113.67
2021-12-21,0.015018653299162264,115.39
2021-12-22,0.0,115.39
2021-12-23,0.00811300043053417,116.33
2021-12-24,0.0,116.33
2021-12-27,0.01917890340910636,119.89
2021-12-28,0.012846133965193617,121.44
2021-12-29,0.0054202836855321195,122.1
2021-12-30,-0.0018036255551270623,121.88
2021-12-31,0.004910921660390408,122.48
2022-01-03,-0.01364568025415658,120.82
2022-01-04,0.004624291464126522,121.38
2022-01-05,0.013746088140116035,123.06
2022-01-06,-0.004152610163243676,122.55
2022-01-07,0.00917874612950707,123.68
2022-01-10,-0.013266613645385374,122.05
2022-01-11,0.0038436038817198687,122.52
2022-01-12,-0.010007912510959944,121.3
2022-01-13,0.0030453581859601906,121.67
2022-01-14,-0.004035130198713991,121.18
2022-01-17,0.0,121.18
2022-01-18,-0.006706437967473328,120.37
2022-01-19,0.008685174444554635,121.42
2022-01-20,-0.01928272247011859,118.83
2022-01-21,-0.01928272247011859,116.38
2022-01-24,0.005569461714868524,117.03
2022-01-25,-0.008581717831374588,116.03
2022-01-26,-0.007266335992045241,115.19
2022-01-27,-0.013459169634167444,113.65
2022-01-28,0.01224373858601397,115.05
2022-01-31,0.01917890340910636,117.3
2022-02-01,0.0015338230917156088,117.48
2022-02-02,-0.007346922663053444,116.62
2022-02-03,-0.012337798587517245,115.19
2022-02-04,0.0006078152428843663,115.26
2022-02-07,-0.004522209794637458,114.74
2022-02-08,0.011352317906903941,116.05
2022-02-09,0.004298747132716525,116.55
2022-02-10,-0.016785084660818943,114.61
2022-02-11,-0.007883997191777561,113.71
2022-02-14,0.00342413096669384,114.1
2022-02-15,0.0,114.1
2022-02-16,0.0052452197519353904,114.7
2022-02-17,0.007902691315041458,115.61
2022-02-18,0.01917890340910636,118.44
2022-02-21,0.0,118.44
2022-02-22,0.005556533833056989,119.1
2022-02-23,-0.011909639044481897,117.69
2022-02-24,-0.006991382860757175,116.87
2022-02-25,0.01917890340910636,120.97
2022-02-28,0.007494843362247322,121.88
2022-03-01,-0.01928272247011859,119.1
2022-03-02,-0.006063344980132816,118.38
2022-03-03,0.007992970928924129,119.33
2022-03-04,0.007181153684135401,120.19
2022-03-07,-0.01928272247011859,116.52
2022-03-08,-0.01928272247011859,110.19
2022-03-09,0.01917890340910636,113.27
2022-03-10,-0.008956994375244854,112.26
2022-03-11,0.0003559366470353473,112.3
2022-03-14,0.01917890340910636,114.52
2022-03-15,0.01917890340910636,116.81
2022-03-16,0.0015398138778864466,116.99
2022-03-17,0.012064925204961902,118.41
2022-03-18,-0.0056740671158228145,117.74
2022-03-21,0.0077836288130403355,118.66
2022-03-22,-0.00837799761718734,117.67
2022-03-23,-0.01928272247011859,114.67
2022-03-24,0.01023741835247928,115.85
2022-03-25,0.011926594578735922,117.24
2022-03-28,-0.0064175484838093705,116.49
2022-03-29,0.01917890340910636,119.32
2022-03-30,-0.004198802647333046,118.82
2022-03-31,-0.01117116576894334,117.5
2022-04-01,0.01285304459349325,119.02
2022-04-04,-0.005138177856123682,118.41
2022-04-05,-0.00575955443634522,117.73
2022-04-06,0.005167624797558302,118.34
2022-04-07,0.013929532033428242,120.0
2022-04-08,0.01168150477383783,121.41
2022-04-11,-0.01928272247011859,118.96
2022-04-12,-0.016527835285619415,117.01
2022-04-13,0.007407496628413847,117.88
2022-04-14,-0.004080313167152299,117.4
2022-04-15,0.0,117.4
2022-04-18,-0.01928272247011859,114.01
2022-04-19,0.01917890340910636,117.23
2022-04-20,0.01917890340910636,119.5
2022-04-21,-0.004697013718325575,118.94
2022-04-22,-0.01928272247011859,116.62
2022-04-25,-0.010516100870845431,115.4
2022-04-26,-0.01928272247011859,110.58
2022-04-27,0.004690980128123523,111.1
2022-04-28,0.008960732451258323,112.1
2022-04-29,0.01917890340910636,114.83
2022-05-02,-0.012619289356377541,113.39
2022-05-03,0.0038724922138740005,113.83
2022-05-04,0.01917890340910636,116.75
2022-05-05,-0.01928272247011859,112.8
2022-05-06,-0.014015763537257477,111.23
2022-05-09,-0.01928272247011859,107.01
2022-05-10,-0.01928272247011859,104.54
2022-05-11,-0.00460257561991727,104.06
2022-05-12,0.01917890340910636,106.45
2022-05-13,0.009908745830107068,107.51
2022-05-16,0.0075980614850594584,108.33
2022-05-17,0.00579915236433691,108.96
2022-05-18,-0.01928272247011859,104.07
2022-05-19,-0.0055885871027576885,103.49
2022-05-20,-0.01928272247011859,99.72
2022-05-23,0.01917890340910636,104.22
2022-05-24,0.006979585923173645,104.95
2022-05-25,-0.0047753840180316314,104.45
2022-05-26,0.01917890340910636,106.53
2022-05-27,0.01917890340910636,108.89
2022-05-30,0.0,108.89
2022-05-31,-0.01666814492278325,107.09
2022-06-01,0.0014928850923100249,107.25
2022-06-02,0.01917890340910636,109.83
2022-06-03,-0.009422250312244392,108.8
2022-06-06,0.004127470263238919,109.25
2022-06-07,0.008476968760382172,110.18
2022-06-08,-0.01928272247011859,107.71
2022-06-09,-0.017608116996289346,105.83
2022-06-10,-0.0059707897411887334,105.2
2022-06-13,-0.01928272247011859,102.01
2022-06-14,-0.01928272247011859,99.52
2022-06-15,0.008504732023043176,100.37
2022-06-16,-0.01928272247011859,94.77
2022-06-17,0.01917890340910636,97.5
2022-06-20,0.0,97.5
2022-06-21,-0.003184063755132947,97.19
2022-06-22,0.012982363257071186,98.46
2022-06-23,0.004762640600834701,98.93
2022-06-24,0.01917890340910636,102.62
2022-06-27,0.009214416570308468,103.57
2022-06-28,-0.008435478821101575,102.7
2022-06-29,0.006696528122370872,103.39
2022-06-30,-0.0017425173018373995,103.21
2022-07-01,0.012325725190634112,104.49
2022-07-04,0.0,104.49
2022-07-05,-0.015139018842803711,102.92
2022-07-06,-0.002724708649517875,102.64
2022-07-07,0.0045685482729937365,103.11
2022-07-08,-0.01928272247011859,100.01
2022-07-11,-0.004610612557683294,99.55
2022-07-12,0.009596803023033604,100.51
2022-07-13,0.001590734111351766,100.67
2022-07-14,-0.013702451261218473,99.3
2022-07-15,0.0071245599422960085,100.01
2022-07-18,-0.01928272247011859,98.1
2022-07-19,0.01917890340910636,101.03
2022-07-20,0.007788590033659409,101.82
2022-07-21,0.016171533041512996,103.48
2022-07-22,0.0011593277198464764,103.6
2022-07-25,0.0030842388417919283,103.92
2022-07-26,-0.000866375194628038,103.83
2022-07-27,0.01917890340910636,106.03
2022-07-28,0.016741082802751425,107.82
2022-07-29,-0.0005561546253171082,107.76
2022-08-01,0.0040746871753265315,108.2
2022-08-02,-0.014991817819237056,106.59
2022-08-03,0.009802795217846253,107.64
2022-08-04,-0.011210604664699832,106.44
2022-08-05,-0.007449680088123434,105.65
2022-08-08,0.015217622403462897,107.27
2022-08-09,0.0,107.27
2022-08-10,0.01917890340910636,109.77
2022-08-11,-0.0012758135040519898,109.63
2022-08-12,0.013139300087358174,111.08
2022-08-15,0.007444222889232834,111.91
2022-08-16,0.0014289785236914995,112.07
2022-08-17,-0.009323327460884092,111.03
2022-08-18,0.0,111.03
2022-08-19,-0.0078668627808909,110.16
2022-08-22,-0.01928272247011859,107.92
2022-08-23,-0.009589835839304416,106.89
2022-08-24,0.005225324183772111,107.45
2022-08-25,0.01404687902516567,108.97
2022-08-26,-0.01928272247011859,104.41
2022-08-29,-0.003934730910661417,104.0
2022-08-30,0.00048088435658145723,104.05
2022-08-31,-0.011988576665585782,102.81
2022-09-01,-0.0018497096586240758,102.62
2022-09-02,-0.011663757931314094,101.43
2022-09-05,0.0,101.43
2022-09-06,-0.010904235675742698,100.33
2022-09-07,0.01917890340910636,103.24
2022-09-08,0.015855632463917354,104.89
2022-09-09,0.014387008879177085,106.41
2022-09-12,0.006556459369245552,107.11
2022-09-13,-0.01928272247011859,104.02
2022-09-14,-0.0042389717592997336,103.58
2022-09-15,0.015518955657670567,105.2
2022-09-16,-0.01928272247011859,102.64
2022-09-19,0.01824651522077243,104.53
2022-09-20,-0.01928272247011859,101.18
2022-09-21,-0.015036483426118158,99.67
2022-09-22,-0.015673185190433425,98.12
2022-09-23,-0.00040808325464599776,98.08
2022-09-26,-0.006854438078491868,97.41
2022-09-27,-0.013955932574919413,96.06
2022-09-28,0.01917890340910636,98.24
2022-09-29,-0.015076075063760257,96.77
2022-09-30,-0.018144622546007426,95.03
2022-10-03,0.01917890340910636,97.44
2022-10-04,0.018203309853873657,99.23
2022-10-05,-0.010637376815202992,98.18
2022-10-06,-0.004492074275204322,97.74
2022-10-07,-0.01928272247011859,93.98
2022-10-10,0.004141412500550146,94.37
2022-10-11,0.0039133329147259845,94.74
2022-10-12,-0.014566579351989338,93.37
2022-10-13,0.012664466035895999,94.56
2022-10-14,0.005483935699990526,95.08
2022-10-17,0.01917890340910636,97.32
2022-10-18,0.01917890340910636,99.28
2022-10-19,-0.010836503388089077,98.21
2022-10-20,-0.01928272247011859,96.07
2022-10-21,0.014980233912143882,97.52
2022-10-24,0.0037868209345202504,97.89
2022-10-25,0.013394886603057678,99.21
2022-10-26,-0.0012107326410567942,99.09
2022-10-27,0.0,99.09
2022-10-28,0.01917890340910636,101.13
2022-10-31,-0.01928272247011859,99.15
2022-11-01,-0.01928272247011859,97.22
2022-11-02,-0.01928272247011859,94.76
2022-11-03,-0.0005281394410853953,94.71
2022-11-04,0.01917890340910636,98.77
2022-11-07,0.01726411387800092,100.49
2022-11-08,-0.0013939711264575156,100.35
2022-11-09,-0.012332736529213427,99.12
2022-11-10,0.01917890340910636,102.33
2022-11-11,0.018589146227714314,104.25
2022-11-14,0.001437965631685069,104.4
2022-11-15,0.0027741484893488264,104.69
2022-11-16,0.002194590124518826,104.92
2022-11-17,-0.002959374632651905,104.61
2022-11-18,0.013577408413687547,106.04
2022-11-21,-0.008523219660938613,105.14
2022-11-22,0.008146725135768654,106.0
2022-11-23,0.0017903962836206813,106.19
2022-11-24,0.0,106.19
2022-11-25,-0.002640483008977236,105.91
2022-11-28,-0.01928272247011859,103.5
2022-11-29,-0.0018376875138332144,103.31
2022-11-30,0.01917890340910636,106.14
2022-12-01,0.008910186129756085,107.09
2022-12-02,0.008924061844975052,108.05
2022-12-05,-0.01257270627595154,106.7
2022-12-06,0.002808053724220706,107.0
2022-12-07,-0.006563492669979229,106.3
2022-12-08,0.015217622403462897,107.93
2022-12-09,0.001203275773254363,108.06
2022-12-12,0.0001849828896103506,108.08
2022-12-13,0.001202276975307774,108.21
2022-12-14,0.00027696164258325553,108.24
2022-12-15,-0.005465910911438066,107.65
2022-12-16,-0.0019529056795573212,107.44
2022-12-19,-0.011043758427276777,106.26
2022-12-20,0.008060427298070917,107.12
2022-12-21,0.01917890340910636,110.64
2022-12-22,-0.018978966597802856,108.56
2022-12-23,0.013268581740448683,110.01
2022-12-26,0.0,110.01
2022-12-27,0.00778660554836538,110.87
2022-12-28,-0.015451766034943767,109.17
2022-12-29,0.01472997922250345,110.79
2022-12-30,-0.007337856338355014,109.98
2023-01-02,0.0,109.98
2023-01-03,0.0025427644326726094,110.26
2023-01-04,0.008758531833857434,111.23
2023-01-05,0.007969161712176768,112.12
2023-01-06,0.017155007795818397,114.06
2023-01-09,-0.006420567802922695,113.33
2023-01-10,0.0008816112665585206,113.43
2023-01-11,0.00026396515813207586,113.46
2023-01-12,0.0003529377101584926,113.5
2023-01-13,0.004132449656021929,113.97
2023-01-16,0.0,113.97
2023-01-17,0.000789688114249088,114.06
2023-01-18,-0.01849396396968908,111.97
2023-01-19,0.00017898398141145229,111.99
2023-01-20,0.011541144046538958,113.29
2023-01-23,0.000617809116639903,113.36
2023-01-24,-0.004597552566614091,112.84
2023-01-25,-0.006847389957445415,112.07
2023-01-26,0.0064044476729940404,112.79
2023-01-27,-0.0005321415622096005,112.73
2023-01-30,0.0046023927239004815,113.25
2023-01-31,0.01917890340910636,115.64
2023-02-01,0.012461037775256664,117.09
2023-02-02,0.0017913944943279065,117.3
2023-02-03,-0.016156821330730802,115.42
2023-02-06,-0.017303851837543165,113.44
2023-02-07,-0.011080158868535072,112.19
2023-02-08,-0.014635579509296552,110.56
2023-02-09,-0.011919758904099244,109.25
2023-02-10,-0.0003660669943470968,109.21
2023-02-13,0.005387461532365917,109.8
2023-02-14,-0.0003640662640806024,109.76
2023-02-15,0.005723588969595598,110.39
2023-02-16,0.0027143129174824645,110.69
2023-02-17,0.01917890340910636,116.69
2023-02-20,0.0,116.69
2023-02-21,-0.013893063217423533,115.08
2023-02-22,-0.0031329024178446607,114.72
2023-02-23,-0.0013959739183494713,114.56
2023-02-24,0.0018313221055740712,114.77
2023-02-27,0.016590611547148706,116.69
2023-02-28,0.000256966981157059,116.72
2023-03-01,0.0063199867448177054,117.46
2023-03-02,0.009489828798767107,118.58
2023-03-03,0.013984755862524581,120.25
2023-03-06,-0.01928272247011859,116.83
2023-03-07,-0.0013709393079993036,116.67
2023-03-08,-0.011551461979768553,115.33
2023-03-09,-0.006611809921059095,114.57
2023-03-10,-0.017699719956553985,112.56
2023-03-13,-0.0052557874857737585,111.97
2023-03-14,0.01917890340910636,115.08
2023-03-15,-0.01928272247011859,111.38
2023-03-16,0.011604407658121327,112.68
2023-03-17,-0.017185834087943618,110.76
2023-03-20,0.01807368255182549,112.78
2023-03-21,0.002125739015015772,113.02
2023-03-22,-0.006836314439022845,112.25
2023-03-23,-0.0047331838626886195,111.72
2023-03-24,0.011126866186731196,112.97
2023-03-27,0.008900274786719401,113.98
2023-03-28,0.009082627775038736,115.02
2023-03-29,0.0073628277365671065,115.87
2023-03-30,0.0006897620594464428,115.95
2023-03-31,0.019134757261807186,118.19
2023-04-03,0.0038844457623845325,118.65
2023-04-04,-0.00829430282482011,117.67
2023-04-05,0.011911772305206526,119.08
2023-04-06,-0.00016801411358068915,119.06
2023-04-07,0.0,119.06
2023-04-10,0.00033594356464105847,119.1
2023-04-11,-0.0004200882247037578,119.05
2023-04-12,-0.0055594250052365055,118.39
2023-04-13,0.011672609256140953,119.78
2023-04-14,-0.004853760460122947,119.2
2023-04-17,0.0051039526454478325,119.81
2023-04-18,-0.010235201424936807,118.59
2023-04-19,0.0010114882732159165,118.71
2023-04-20,0.0026923723107041644,119.03
2023-04-21,0.013020859476303145,120.59
2023-04-24,-0.00157724319435458,120.4
2023-04-25,-0.01928272247011859,118.07
2023-04-26,-0.01928272247011859,115.75
2023-04-27,0.0070590263448852605,116.57
2023-04-28,0.0165050393617944,118.51
2023-05-01,0.01917890340910636,121.64
2023-05-02,-0.009581758784198655,120.48
2023-05-03,-0.00482562462028634,119.9
2023-05-04,-0.009216340290158762,118.8
2023-05-05,0.01917890340910636,121.7
2023-05-08,-0.0016443512047223396,121.5
2023-05-09,-0.007600813132845211,120.58
2023-05-10,-0.007993865979324761,119.62
2023-05-11,-0.0028460461499237462,119.28
2023-05-12,0.012579544706569391,120.79
2023-05-15,-0.0017405138157716982,120.58
2023-05-16,-0.018920876153002163,118.32
2023-05-17,0.005478963032258892,118.97
2023-05-18,0.00016798588958029086,118.99
2023-05-19,0.0008396473974435676,119.09
2023-05-22,-0.00809366552345469,118.13
2023-05-23,-0.00807451130325014,117.18
2023-05-24,-0.017736363490297655,115.12
2023-05-25,-0.013820058600863105,113.54
2023-05-26,0.005446142805050293,114.16
2023-05-30,-0.00703267136418074,113.36
2023-05-31,-0.007704604385552656,112.49
2023-06-01,0.003992021269537457,112.94
